# # Once                                                         FEFF 9.6.4  
# # POT  SCF 100  5.0000   0, core-hole, AFOLP (folp(0)= 1.150)
# # Abs   Z=31 Rmt= 1.474 Rnm= 1.505 K  shell
# # Pot 1 Z=31 Rmt= 1.457 Rnm= 1.485
# # Pot 2 Z=24 Rmt= 1.303 Rnm= 1.379
# # Pot 3 Z= 6 Rmt= 1.021 Rnm= 1.110
# # Gam_ch=2.082E+00 H-L exch Vi= 0.000E+00 Vr= 0.000E+00
# # Mu=-1.432E+01 kf=2.267E+00 Vint=-2.538E+01 Rs_int= 1.600
# # PATH  Rmax= 5.000,  Keep_limit= 0.00, Heap_limit 0.00  Pwcrit= 2.50%
#  S02=1.000  Temp=   0.00  Debye_temp=   0.00  Global_sig2= 0.00000
#  Energy zero shift, vr, vi    0.00000E+00   0.00000E+00
#  Curved wave amplitude ratio filter   4.000%
#     file         sig2 tot  cw amp ratio   deg  nlegs   reff  inp sig2
#           1       0.00000    100.00      6.00     2   2.6711
#           2       0.00000     69.33      6.00     2   2.9008
#           3       0.00000     41.98      6.00     2   3.5746
#           4       0.00000     39.30      6.00     2   3.9433
#           5       0.00000     42.94     24.00     3   4.1184
#           6       0.00000      8.34     24.00     3   4.1215
#           7       0.00000     10.89      2.00     2   4.2351
#           8       0.00000     21.15      6.00     2   4.6035
#           9       0.00000     49.33     12.00     3   4.6329
#          10       0.00000     29.74      6.00     4   4.6624
#          11       0.00000      7.68     24.00     3   4.7576
#          12       0.00000     11.40     24.00     3   4.7576
#          13       0.00000     44.32     12.00     2   4.8953
#    13/  13 paths used
#  xsedge+50, used to normalize mu           1.9974E-04
#  -----------------------------------------------------------------------
#  omega    e    k    mu    mu0     chi     @#
   10379.169    -14.321   0.000  8.67023E-02  6.47552E-01 -4.48559E-01
   10379.179    -14.312   0.050  9.38778E-02  6.55133E-01 -4.48261E-01
   10379.207    -14.283   0.100  1.01240E-01  6.62715E-01 -4.47815E-01
   10379.255    -14.236   0.150  1.24452E-01  6.85278E-01 -4.45484E-01
   10379.322    -14.169   0.200  1.49283E-01  7.07842E-01 -4.41890E-01
   10379.407    -14.083   0.250  1.93238E-01  7.44148E-01 -4.33026E-01
   10379.512    -13.978   0.300  2.41192E-01  7.80453E-01 -4.21152E-01
   10379.636    -13.855   0.350  3.09099E-01  8.25939E-01 -4.00215E-01
   10379.779    -13.712   0.400  3.83089E-01  8.71424E-01 -3.74959E-01
   10379.941    -13.550   0.450  4.73107E-01  9.18828E-01 -3.38831E-01
   10380.122    -13.369   0.500  5.69168E-01  9.66231E-01 -2.98868E-01
   10380.322    -13.169   0.550  6.73770E-01  1.00953E+00 -2.49997E-01
   10380.541    -12.950   0.600  7.80986E-01  1.05284E+00 -2.00246E-01
   10380.779    -12.712   0.650  8.87982E-01  1.08981E+00 -1.47032E-01
   10381.036    -12.454   0.700  9.91401E-01  1.12678E+00 -9.75521E-02
   10381.312    -12.178   0.750  1.08591E+00  1.15755E+00 -5.10866E-02
   10381.608    -11.883   0.800  1.17024E+00  1.18832E+00 -1.27590E-02
   10381.922    -11.569   0.850  1.23895E+00  1.21362E+00  1.77090E-02
   10382.255    -11.235   0.900  1.29345E+00  1.23893E+00  3.77812E-02
   10382.608    -10.883   0.950  1.32975E+00  1.25933E+00  4.84350E-02
   10382.979    -10.511   1.000  1.35242E+00  1.27972E+00  4.96348E-02
   10383.370    -10.121   1.050  1.35949E+00  1.29545E+00  4.35062E-02
   10383.779     -9.711   1.100  1.35851E+00  1.31117E+00  3.20001E-02
   10384.208     -9.283   1.150  1.34898E+00  1.32234E+00  1.79671E-02
   10384.656     -8.835   1.200  1.34014E+00  1.33351E+00  4.45946E-03
   10385.122     -8.368   1.250  1.33156E+00  1.34017E+00 -5.79745E-03
   10385.608     -7.883   1.300  1.33213E+00  1.34682E+00 -9.90295E-03
   10386.113     -7.378   1.350  1.34012E+00  1.34912E+00 -6.08593E-03
   10386.637     -6.854   1.400  1.36151E+00  1.35141E+00  6.85075E-03
   10387.180     -6.311   1.450  1.39198E+00  1.34966E+00  2.89111E-02
   10387.742     -5.749   1.500  1.43315E+00  1.34791E+00  5.86140E-02
   10388.323     -5.168   1.550  1.47790E+00  1.34251E+00  9.39496E-02
   10388.923     -4.568   1.600  1.52373E+00  1.33711E+00  1.30700E-01
   10389.542     -3.949   1.650  1.56227E+00  1.32865E+00  1.65486E-01
   10390.180     -3.311   1.700  1.58897E+00  1.32019E+00  1.92600E-01
   10390.837     -2.653   1.750  1.59682E+00  1.30928E+00  2.08765E-01
   10391.514     -1.977   1.800  1.58271E+00  1.29837E+00  2.09213E-01
   10392.209     -1.282   1.850  1.54350E+00  1.28568E+00  1.92451E-01
   10392.923     -0.567   1.900  1.48073E+00  1.27299E+00  1.57356E-01
   10393.657      0.166   1.950  1.39606E+00  1.25885E+00  1.05507E-01
   10394.409      0.919   2.000  1.29712E+00  1.24471E+00  4.09197E-02
   10395.181      1.690   2.050  1.19004E+00  1.23104E+00 -3.24950E-02
   10395.971      2.481   2.100  1.08608E+00  1.21737E+00 -1.05655E-01
   10396.781      3.290   2.150  9.95213E-01  1.20370E+00 -1.70390E-01
   10397.610      4.119   2.200  9.25773E-01  1.19003E+00 -2.19386E-01
   10398.457      4.967   2.250  8.84038E-01  1.18253E+00 -2.51599E-01
   10399.324      5.833   2.300  8.73203E-01  1.17502E+00 -2.58364E-01
   10400.210      6.719   2.350  8.92406E-01  1.16751E+00 -2.39223E-01
   10401.115      7.624   2.400  9.36786E-01  1.16000E+00 -1.97221E-01
   10402.039      8.548   2.450  1.00106E+00  1.15409E+00 -1.36908E-01
   10402.982      9.491   2.500  1.07590E+00  1.14818E+00 -6.54893E-02
   10403.944     10.453   2.550  1.14943E+00  1.14227E+00  6.56958E-03
   10404.925     11.434   2.600  1.21123E+00  1.13636E+00  6.96115E-02
   10405.925     12.434   2.650  1.24763E+00  1.12700E+00  1.13278E-01
   10406.944     13.453   2.700  1.26487E+00  1.11764E+00  1.39646E-01
   10407.982     14.492   2.750  1.26372E+00  1.10828E+00  1.48939E-01
   10409.040     15.549   2.800  1.24744E+00  1.09892E+00  1.43768E-01
   10410.116     16.625   2.850  1.22704E+00  1.09037E+00  1.33260E-01
   10411.211     17.721   2.900  1.19874E+00  1.08183E+00  1.14831E-01
   10412.326     18.835   2.950  1.16547E+00  1.07328E+00  9.12120E-02
   10413.459     19.968   3.000  1.13015E+00  1.06474E+00  6.52010E-02
   10414.612     21.121   3.050  1.09979E+00  1.05942E+00  4.03665E-02
   10415.783     22.293   3.100  1.07073E+00  1.05411E+00  1.66709E-02
   10416.974     23.483   3.150  1.04457E+00  1.04880E+00 -4.25684E-03
   10418.184     24.693   3.200  1.02229E+00  1.04348E+00 -2.13980E-02
   10419.412     25.922   3.250  1.00544E+00  1.04099E+00 -3.58987E-02
   10420.660     27.169   3.300  9.92368E-01  1.03849E+00 -4.65967E-02
   10421.927     28.436   3.350  9.82832E-01  1.03600E+00 -5.37250E-02
   10423.213     29.722   3.400  9.76215E-01  1.03350E+00 -5.79073E-02
   10424.518     31.027   3.450  9.71218E-01  1.03335E+00 -6.26562E-02
   10425.842     32.351   3.500  9.68411E-01  1.03319E+00 -6.51813E-02
   10427.185     33.694   3.550  9.67735E-01  1.03303E+00 -6.55546E-02
   10428.547     35.056   3.600  9.68968E-01  1.03287E+00 -6.40140E-02
   10429.928     36.437   3.650  9.72455E-01  1.03435E+00 -6.17638E-02
   10431.328     37.837   3.700  9.78851E-01  1.03583E+00 -5.66394E-02
   10432.747     39.257   3.750  9.88392E-01  1.03731E+00 -4.84396E-02
   10434.185     40.695   3.800  1.00103E+00  1.03880E+00 -3.72483E-02
   10435.643     42.152   3.850  1.01803E+00  1.04163E+00 -2.31638E-02
   10437.119     43.628   3.900  1.03738E+00  1.04447E+00 -6.91883E-03
   10438.615     45.124   3.950  1.05806E+00  1.04730E+00  1.04461E-02
   10440.129     46.638   4.000  1.07873E+00  1.05014E+00  2.76307E-02
   10441.663     48.172   4.050  1.09839E+00  1.05330E+00  4.33549E-02
   10443.215     49.724   4.100  1.11503E+00  1.05646E+00  5.60120E-02
   10444.787     51.296   4.150  1.12747E+00  1.05962E+00  6.45399E-02
   10446.377     52.887   4.200  1.13499E+00  1.06278E+00  6.83266E-02
   10447.987     54.496   4.250  1.13704E+00  1.06581E+00  6.70615E-02
   10449.616     56.125   4.300  1.13448E+00  1.06884E+00  6.14987E-02
   10451.264     57.773   4.350  1.12837E+00  1.07188E+00  5.26793E-02
   10452.931     59.440   4.400  1.12012E+00  1.07491E+00  4.19560E-02
   10454.617     61.126   4.450  1.11061E+00  1.07740E+00  3.07008E-02
   10456.321     62.831   4.500  1.10205E+00  1.07989E+00  2.04031E-02
   10458.046     64.555   4.550  1.09541E+00  1.08237E+00  1.19575E-02
   10459.789     66.298   4.600  1.09112E+00  1.08486E+00  5.72212E-03
   10461.551     68.060   4.650  1.08772E+00  1.08621E+00  1.37640E-03
   10463.332     69.841   4.700  1.08569E+00  1.08755E+00 -1.69030E-03
   10465.132     71.641   4.750  1.08388E+00  1.08890E+00 -4.54632E-03
   10466.951     73.461   4.800  1.08103E+00  1.09024E+00 -8.32808E-03
   10468.790     75.299   4.850  1.07494E+00  1.09040E+00 -1.39674E-02
   10470.647     77.156   4.900  1.06627E+00  1.09056E+00 -2.19237E-02
   10472.523     79.033   4.950  1.05521E+00  1.09073E+00 -3.20211E-02
   10474.419     80.928   5.000  1.04271E+00  1.09089E+00 -4.33974E-02
   10476.333     82.843   5.050  1.02956E+00  1.09003E+00 -5.45040E-02
   10478.267     84.776   5.100  1.01874E+00  1.08917E+00 -6.35184E-02
   10480.220     86.729   5.150  1.01233E+00  1.08830E+00 -6.85608E-02
   10482.191     88.701   5.200  1.01206E+00  1.08744E+00 -6.80674E-02
   10484.182     90.691   5.250  1.01842E+00  1.08571E+00 -6.08503E-02
   10486.192     92.701   5.300  1.03191E+00  1.08397E+00 -4.71582E-02
   10488.221     94.730   5.350  1.05136E+00  1.08223E+00 -2.80170E-02
   10490.268     96.778   5.400  1.07459E+00  1.08049E+00 -5.36425E-03
   10492.335     98.845   5.450  1.09850E+00  1.07842E+00  1.82941E-02
   10494.421    100.931   5.500  1.12004E+00  1.07635E+00  3.99005E-02
   10496.526    103.036   5.550  1.13625E+00  1.07428E+00  5.67256E-02
   10498.650    105.160   5.600  1.14487E+00  1.07220E+00  6.66651E-02
   10500.794    107.303   5.650  1.14468E+00  1.07012E+00  6.85614E-02
   10502.956    109.465   5.700  1.13581E+00  1.06805E+00  6.24668E-02
   10505.137    111.646   5.750  1.11971E+00  1.06597E+00  4.96651E-02
   10507.337    113.846   5.800  1.09892E+00  1.06389E+00  3.24511E-02
   10509.556    116.066   5.850  1.07707E+00  1.06224E+00  1.37630E-02
   10511.795    118.304   5.900  1.05703E+00  1.06059E+00 -3.31546E-03
   10514.052    120.562   5.950  1.04171E+00  1.05894E+00 -1.60711E-02
   10516.329    122.838   6.000  1.03309E+00  1.05730E+00 -2.26191E-02
   10518.624    125.134   6.050  1.03294E+00  1.05660E+00 -2.21228E-02
   10520.939    127.448   6.100  1.03950E+00  1.05589E+00 -1.53523E-02
   10523.272    129.782   6.150  1.05089E+00  1.05519E+00 -4.03377E-03
   10525.625    132.134   6.200  1.06437E+00  1.05449E+00  9.26653E-03
   10527.997    134.506   6.250  1.07679E+00  1.05379E+00  2.16035E-02
   10530.388    136.897   6.300  1.08519E+00  1.05308E+00  3.01809E-02
   10532.797    139.307   6.350  1.08729E+00  1.05238E+00  3.28529E-02
   10535.226    141.736   6.400  1.08195E+00  1.05168E+00  2.85107E-02
   10537.674    144.183   6.450  1.06931E+00  1.05098E+00  1.72870E-02
   10540.141    146.650   6.500  1.05085E+00  1.05028E+00  5.43404E-04
   10542.627    149.136   6.550  1.02950E+00  1.05043E+00 -1.97562E-02
   10545.132    151.642   6.600  1.00820E+00  1.05059E+00 -4.00011E-02
   10547.656    154.166   6.650  9.90290E-01  1.05075E+00 -5.70335E-02
   10550.199    156.709   6.700  9.78643E-01  1.05090E+00 -6.81549E-02
   10552.762    159.271   6.750  9.75166E-01  1.05106E+00 -7.15674E-02
   10555.343    161.852   6.800  9.80519E-01  1.05122E+00 -6.66539E-02
   10557.943    164.453   6.850  9.94031E-01  1.05137E+00 -5.40508E-02
   10560.563    167.072   6.900  1.01385E+00  1.05153E+00 -3.55087E-02
   10563.201    169.710   6.950  1.03728E+00  1.05169E+00 -1.35712E-02
   10565.859    172.368   7.000  1.06125E+00  1.05184E+00  8.86384E-03
   10568.535    175.044   7.050  1.08333E+00  1.05226E+00  2.92586E-02
   10571.231    177.740   7.100  1.10067E+00  1.05267E+00  4.51649E-02
   10573.945    180.455   7.150  1.11173E+00  1.05309E+00  5.51428E-02
   10576.679    183.188   7.200  1.11602E+00  1.05350E+00  5.87532E-02
   10579.432    185.941   7.250  1.11410E+00  1.05392E+00  5.65237E-02
   10582.203    188.713   7.300  1.10734E+00  1.05433E+00  4.97490E-02
   10584.994    191.503   7.350  1.09758E+00  1.05475E+00  4.01760E-02
   10587.804    194.313   7.400  1.08678E+00  1.05516E+00  2.96393E-02
   10590.633    197.142   7.450  1.07662E+00  1.05558E+00  1.97186E-02
   10593.481    199.990   7.500  1.06826E+00  1.05599E+00  1.14837E-02
   10596.348    202.857   7.550  1.06032E+00  1.05462E+00  5.34523E-03
   10599.234    205.743   7.600  1.05440E+00  1.05325E+00  1.07534E-03
   10602.139    208.648   7.650  1.04976E+00  1.05188E+00 -1.99433E-03
   10605.063    211.573   7.700  1.04543E+00  1.05051E+00 -4.78112E-03
   10608.006    214.516   7.750  1.04046E+00  1.04914E+00 -8.17539E-03
   10610.969    217.478   7.800  1.03421E+00  1.04777E+00 -1.27880E-02
   10613.950    220.459   7.850  1.02652E+00  1.04640E+00 -1.87747E-02
   10616.950    223.460   7.900  1.01777E+00  1.04503E+00 -2.57729E-02
   10619.970    226.479   7.950  1.00885E+00  1.04366E+00 -3.29603E-02
   10623.008    229.518   8.000  1.00092E+00  1.04229E+00 -3.92195E-02
   10626.066    232.575   8.050  9.95183E-01  1.04086E+00 -4.33700E-02
   10629.142    235.652   8.100  9.92738E-01  1.03943E+00 -4.44047E-02
   10632.238    238.747   8.150  9.94185E-01  1.03799E+00 -4.17357E-02
   10635.353    241.862   8.200  9.99563E-01  1.03656E+00 -3.53061E-02
   10638.486    244.996   8.250  1.00833E+00  1.03513E+00 -2.56193E-02
   10641.639    248.148   8.300  1.01943E+00  1.03370E+00 -1.36587E-02
   10644.811    251.320   8.350  1.03152E+00  1.03226E+00 -7.16159E-04
   10648.002    254.511   8.400  1.04315E+00  1.03083E+00  1.18337E-02
   10651.212    257.721   8.450  1.05306E+00  1.02940E+00  2.27665E-02
   10654.441    260.950   8.500  1.06034E+00  1.02797E+00  3.12003E-02
   10657.689    264.198   8.550  1.06498E+00  1.02686E+00  3.68021E-02
   10660.956    267.465   8.600  1.06654E+00  1.02574E+00  3.94465E-02
   10664.242    270.751   8.650  1.06549E+00  1.02463E+00  3.95632E-02
   10667.547    274.056   8.700  1.06254E+00  1.02352E+00  3.78371E-02
   10670.871    277.381   8.750  1.05846E+00  1.02241E+00  3.50125E-02
   10674.214    280.724   8.800  1.05388E+00  1.02130E+00  3.17004E-02
   10677.577    284.086   8.850  1.04916E+00  1.02018E+00  2.82333E-02
   10680.958    287.467   8.900  1.04428E+00  1.01907E+00  2.45979E-02
   10684.359    290.868   8.950  1.03890E+00  1.01796E+00  2.04641E-02
   10687.778    294.287   9.000  1.03248E+00  1.01685E+00  1.53013E-02
   10691.217    297.726   9.050  1.02479E+00  1.01618E+00  8.43650E-03
   10694.674    301.183   9.100  1.01516E+00  1.01551E+00 -3.44132E-04
   10698.151    304.660   9.150  1.00359E+00  1.01484E+00 -1.10349E-02
   10701.646    308.156   9.200  9.90588E-01  1.01416E+00 -2.31664E-02
   10705.161    311.670   9.250  9.77107E-01  1.01349E+00 -3.57881E-02
   10708.695    315.204   9.300  9.64518E-01  1.01282E+00 -4.75563E-02
   10712.248    318.757   9.350  9.54395E-01  1.01215E+00 -5.69177E-02
   10715.820    322.329   9.400  9.48265E-01  1.01148E+00 -6.23583E-02
   10719.410    325.920   9.450  9.47338E-01  1.01081E+00 -6.26729E-02
   10723.020    329.530   9.500  9.52262E-01  1.01014E+00 -5.72045E-02
   10726.649    333.159   9.550  9.63016E-01  1.00948E+00 -4.59623E-02
   10730.297    336.807   9.600  9.78790E-01  1.00883E+00 -2.97331E-02
   10733.965    340.474   9.650  9.98035E-01  1.00817E+00 -1.00411E-02
   10737.651    344.160   9.700  1.01869E+00  1.00752E+00  1.10771E-02
   10741.356    347.865   9.750  1.03846E+00  1.00686E+00  3.13480E-02
   10745.080    351.589   9.800  1.05513E+00  1.00620E+00  4.85795E-02
   10748.823    355.333   9.850  1.06691E+00  1.00555E+00  6.09659E-02
   10752.586    359.095   9.900  1.07261E+00  1.00489E+00  6.73313E-02
   10756.367    362.877   9.950  1.07184E+00  1.00424E+00  6.72709E-02
   10760.168    366.677  10.000  1.06501E+00  1.00358E+00  6.11715E-02
   10763.987    370.497  10.050  1.05279E+00  1.00249E+00  5.01511E-02
   10767.826    374.335  10.100  1.03712E+00  1.00139E+00  3.56610E-02
   10771.683    378.193  10.150  1.01983E+00  1.00029E+00  1.95238E-02
   10775.560    382.069  10.200  1.00273E+00  9.99197E-01  3.53273E-03
   10779.456    385.965  10.250  9.87323E-01  9.98101E-01 -1.07940E-02
   10783.371    389.880  10.300  9.74677E-01  9.97005E-01 -2.23863E-02
   10787.304    393.814  10.350  9.65322E-01  9.95909E-01 -3.07017E-02
   10791.257    397.766  10.400  9.59280E-01  9.94813E-01 -3.57053E-02
   10795.229    401.738  10.450  9.56175E-01  9.93716E-01 -3.77670E-02
   10799.220    405.729  10.500  9.55383E-01  9.92620E-01 -3.75031E-02
   10803.230    409.739  10.550  9.56216E-01  9.91524E-01 -3.56011E-02
   10807.259    413.768  10.600  9.58069E-01  9.90428E-01 -3.26639E-02
   10811.307    417.817  10.650  9.60533E-01  9.89332E-01 -2.91029E-02
   10815.374    421.884  10.700  9.63429E-01  9.88235E-01 -2.50971E-02
   10819.461    425.970  10.750  9.66782E-01  9.87139E-01 -2.06194E-02
   10823.566    430.075  10.800  9.70740E-01  9.86043E-01 -1.55180E-02
   10827.690    434.199  10.850  9.75464E-01  9.84947E-01 -9.62655E-03
   10831.834    438.343  10.900  9.81020E-01  9.83851E-01 -2.87707E-03
   10835.996    442.505  10.950  9.87290E-01  9.82755E-01  4.61464E-03
   10840.177    446.687  11.000  9.93939E-01  9.81658E-01  1.25098E-02
   10844.378    450.887  11.050  1.00066E+00  9.80724E-01  2.03253E-02
   10848.597    455.107  11.100  1.00657E+00  9.79789E-01  2.73348E-02
   10852.836    459.345  11.150  1.01097E+00  9.78854E-01  3.28120E-02
   10857.094    463.603  11.200  1.01324E+00  9.77919E-01  3.61200E-02
   10861.370    467.880  11.250  1.01296E+00  9.76984E-01  3.68234E-02
   10865.666    472.175  11.300  1.00998E+00  9.76049E-01  3.47668E-02
   10869.981    476.490  11.350  1.00447E+00  9.75115E-01  3.01048E-02
   10874.315    480.824  11.400  9.96859E-01  9.74180E-01  2.32790E-02
   10878.668    485.177  11.450  9.87794E-01  9.73245E-01  1.49485E-02
   10883.040    489.549  11.500  9.78036E-01  9.72310E-01  5.88865E-03
   10887.431    493.940  11.550  9.68345E-01  9.71375E-01 -3.11952E-03
   10891.841    498.350  11.600  9.59387E-01  9.70441E-01 -1.13894E-02
   10896.270    502.779  11.650  9.51665E-01  9.69506E-01 -1.83999E-02
   10900.718    507.227  11.700  9.45491E-01  9.68571E-01 -2.38270E-02
   10905.185    511.695  11.750  9.40988E-01  9.67636E-01 -2.75365E-02
   10909.671    516.181  11.800  9.38139E-01  9.66701E-01 -2.95436E-02
   10914.177    520.686  11.850  9.36834E-01  9.65766E-01 -2.99552E-02
   10918.701    525.210  11.900  9.36934E-01  9.64832E-01 -2.89109E-02
   10923.245    529.754  11.950  9.38313E-01  9.63897E-01 -2.65387E-02
   10927.807    534.316  12.000  9.40873E-01  9.62962E-01 -2.29357E-02
   10932.389    538.898  12.050  9.44396E-01  9.61926E-01 -1.82201E-02
   10936.989    543.498  12.100  9.48991E-01  9.60890E-01 -1.23787E-02
   10941.609    548.118  12.150  9.54533E-01  9.59854E-01 -5.54127E-03
   10946.247    552.757  12.200  9.60784E-01  9.58818E-01  2.04923E-03
   10950.905    557.414  12.250  9.67368E-01  9.57783E-01  1.00010E-02
   10955.582    562.091  12.300  9.73761E-01  9.56747E-01  1.77696E-02
   10960.278    566.787  12.350  9.79332E-01  9.55711E-01  2.46931E-02
   10964.992    571.502  12.400  9.83407E-01  9.54675E-01  3.00655E-02
   10969.726    576.236  12.450  9.85371E-01  9.53639E-01  3.32370E-02
   10974.479    580.989  12.500  9.84769E-01  9.52603E-01  3.37238E-02
   10979.251    585.761  12.550  9.81398E-01  9.51567E-01  3.13056E-02
