# # Once                                                         FEFF 9.6.4  
# # POT  SCF 100  6.0000   0, core-hole, AFOLP (folp(0)= 1.150)
# # Abs   Z=57 Rmt= 1.927 Rnm= 1.936 L3 shell
# # Pot 1 Z=26 Rmt= 1.392 Rnm= 1.454
# # Pot 2 Z=14 Rmt= 1.374 Rnm= 1.433
# # Pot 3 Z=57 Rmt= 1.969 Rnm= 1.987
# # Gam_ch=3.160E+00 H-L exch Vi= 0.000E+00 Vr= 0.000E+00
# # Mu=-1.601E+01 kf=2.008E+00 Vint=-2.347E+01 Rs_int= 1.806
# # PATH  Rmax= 6.000,  Keep_limit= 0.00, Heap_limit 0.00  Pwcrit= 2.50%
#  S02=0.800  Temp=  20.00  Debye_temp= 370.00  Global_sig2= 0.00150
#  Energy zero shift, vr, vi    0.00000E+00   0.00000E+00
#  Curved wave amplitude ratio filter   4.000%
#     file         sig2 tot  cw amp ratio   deg  nlegs   reff  inp sig2
#           1       0.00392    100.00     15.00     2   3.3344
#           2       0.00565     16.02      2.00     2   3.3344
#           3       0.00426      4.65     20.00     3   4.5286
#           5       0.00390      9.58      4.00     2   4.9796
#           6       0.00388     22.89     11.00     2   5.2204
#           7       0.00406      4.54     22.00     3   5.5696
#           8       0.00285      7.35      4.00     2   5.7500
#           9       0.00388     11.43      8.00     2   5.8871
#          10       0.00388     21.74     14.00     3   5.8927
#          11       0.00560      4.81      4.00     3   5.8927
#          12       0.00389      4.22      2.00     3   5.8927
#          13       0.00390     15.11      7.00     4   5.8982
#    12/  14 paths used
#  xsedge+50, used to normalize mu           8.8563E-04
#  -----------------------------------------------------------------------
#  omega    e    k    mu    mu0     chi     @#
    5487.136    -15.999   0.050  1.19844E+00  1.42574E+00 -1.11664E-01
    5487.164    -15.970   0.100  1.21119E+00  1.43792E+00 -1.09671E-01
    5487.212    -15.923   0.150  1.24957E+00  1.47504E+00 -1.03889E-01
    5487.279    -15.856   0.200  1.28925E+00  1.51215E+00 -9.80586E-02
    5487.364    -15.770   0.250  1.35462E+00  1.57472E+00 -8.90089E-02
    5487.469    -15.666   0.300  1.42357E+00  1.63728E+00 -7.99715E-02
    5487.593    -15.542   0.350  1.51540E+00  1.72378E+00 -6.89034E-02
    5487.736    -15.399   0.400  1.61394E+00  1.81027E+00 -5.81522E-02
    5487.898    -15.237   0.450  1.72691E+00  1.91455E+00 -4.71645E-02
    5488.079    -15.056   0.500  1.84956E+00  2.01882E+00 -3.69516E-02
    5488.279    -14.856   0.550  1.97278E+00  2.12837E+00 -2.85785E-02
    5488.498    -14.637   0.600  2.10456E+00  2.23792E+00 -2.11433E-02
    5488.736    -14.399   0.650  2.22157E+00  2.33422E+00 -1.67198E-02
    5488.993    -14.142   0.700  2.34025E+00  2.43051E+00 -1.25940E-02
    5489.269    -13.865   0.750  2.42647E+00  2.49220E+00 -1.00086E-02
    5489.565    -13.570   0.800  2.51620E+00  2.55389E+00 -6.31610E-03
    5489.879    -13.256   0.850  2.55954E+00  2.56428E+00 -9.09338E-04
    5490.212    -12.922   0.900  2.60792E+00  2.57468E+00  7.44328E-03
    5490.565    -12.570   0.950  2.61044E+00  2.53011E+00  2.04029E-02
    5490.936    -12.198   1.000  2.61364E+00  2.48553E+00  3.75850E-02
    5491.327    -11.808   1.050  2.57828E+00  2.39784E+00  5.91585E-02
    5491.736    -11.398   1.100  2.53297E+00  2.31015E+00  8.27824E-02
    5492.165    -10.970   1.150  2.45638E+00  2.19997E+00  1.05067E-01
    5492.613    -10.522   1.200  2.35923E+00  2.08979E+00  1.23079E-01
    5493.079    -10.055   1.250  2.24095E+00  1.97638E+00  1.31742E-01
    5493.565     -9.570   1.300  2.10130E+00  1.86297E+00  1.30427E-01
    5494.070     -9.065   1.350  1.95672E+00  1.75888E+00  1.16724E-01
    5494.594     -8.541   1.400  1.80090E+00  1.65480E+00  9.34974E-02
    5495.137     -7.998   1.450  1.65738E+00  1.56576E+00  6.25205E-02
    5495.699     -7.436   1.500  1.51514E+00  1.47673E+00  2.80737E-02
    5496.280     -6.855   1.550  1.39575E+00  1.40399E+00 -6.35199E-03
    5496.880     -6.255   1.600  1.28522E+00  1.33125E+00 -3.75667E-02
    5497.499     -5.636   1.650  1.19974E+00  1.27386E+00 -6.31361E-02
    5498.137     -4.998   1.700  1.12483E+00  1.21647E+00 -8.16235E-02
    5498.794     -4.340   1.750  1.07629E+00  1.17735E+00 -9.26866E-02
    5499.471     -3.664   1.800  1.03605E+00  1.13823E+00 -9.65705E-02
    5500.166     -2.969   1.850  1.02294E+00  1.11932E+00 -9.35508E-02
    5500.880     -2.254   1.900  1.01479E+00  1.10041E+00 -8.54087E-02
    5501.614     -1.521   1.950  1.00650E+00  1.07908E+00 -7.43349E-02
    5502.366     -0.769   2.000  9.98777E-01  1.05774E+00 -6.20450E-02
    5503.138      0.003   2.050  9.89458E-01  1.03561E+00 -4.96140E-02
    5503.928      0.794   2.100  9.78466E-01  1.01348E+00 -3.84710E-02
    5504.738      1.603   2.150  9.65483E-01  9.91346E-01 -2.90609E-02
    5505.567      2.432   2.200  9.50701E-01  9.69214E-01 -2.12830E-02
    5506.414      3.280   2.250  9.37092E-01  9.49373E-01 -1.43230E-02
    5507.281      4.146   2.300  9.23033E-01  9.29531E-01 -7.69089E-03
    5508.167      5.032   2.350  9.09246E-01  9.09690E-01 -5.32928E-04
    5509.072      5.937   2.400  8.95973E-01  8.89848E-01  7.47042E-03
    5509.996      6.861   2.450  8.93078E-01  8.79924E-01  1.60978E-02
    5510.939      7.804   2.500  8.89480E-01  8.70000E-01  2.39219E-02
    5511.901      8.766   2.550  8.84140E-01  8.60075E-01  2.96545E-02
    5512.882      9.747   2.600  8.76228E-01  8.50151E-01  3.22454E-02
    5513.882     10.747   2.650  8.77764E-01  8.50927E-01  3.29040E-02
    5514.901     11.766   2.700  8.77009E-01  8.51703E-01  3.07659E-02
    5515.939     12.805   2.750  8.74335E-01  8.52478E-01  2.63499E-02
    5516.997     13.862   2.800  8.70328E-01  8.53254E-01  2.04138E-02
    5518.073     14.938   2.850  8.70430E-01  8.60267E-01  1.19931E-02
    5519.168     16.034   2.900  8.70555E-01  8.67279E-01  3.81527E-03
    5520.283     17.148   2.950  8.72167E-01  8.74292E-01 -2.44362E-03
    5521.416     18.281   3.000  8.75880E-01  8.81304E-01 -6.15866E-03
    5522.569     19.434   3.050  8.80350E-01  8.90318E-01 -1.11540E-02
    5523.740     20.606   3.100  8.87287E-01  8.99331E-01 -1.32843E-02
    5524.931     21.796   3.150  8.97570E-01  9.08344E-01 -1.17167E-02
    5526.141     23.006   3.200  9.10939E-01  9.17357E-01 -6.88349E-03
    5527.369     24.235   3.250  9.24188E-01  9.26168E-01 -2.09798E-03
    5528.617     25.482   3.300  9.38573E-01  9.34978E-01  3.76602E-03
    5529.884     26.749   3.350  9.53005E-01  9.43789E-01  9.54662E-03
    5531.170     28.035   3.400  9.66357E-01  9.52599E-01  1.40910E-02
    5532.475     29.340   3.450  9.74442E-01  9.58211E-01  1.65234E-02
    5533.799     30.664   3.500  9.80200E-01  9.63823E-01  1.65708E-02
    5535.142     32.007   3.550  9.83514E-01  9.69435E-01  1.41603E-02
    5536.504     33.369   3.600  9.84690E-01  9.75047E-01  9.64151E-03
    5537.885     34.750   3.650  9.80174E-01  9.76458E-01  3.71699E-03
    5539.285     36.150   3.700  9.75096E-01  9.77868E-01 -2.77395E-03
    5540.704     37.569   3.750  9.70227E-01  9.79279E-01 -9.06174E-03
    5542.142     39.008   3.800  9.66175E-01  9.80689E-01 -1.45369E-02
    5543.600     40.465   3.850  9.59740E-01  9.78372E-01 -1.87602E-02
    5545.076     41.941   3.900  9.54655E-01  9.76054E-01 -2.16629E-02
    5546.572     43.437   3.950  9.50900E-01  9.73736E-01 -2.32435E-02
    5548.086     44.951   4.000  9.48406E-01  9.71418E-01 -2.35506E-02
    5549.620     46.485   4.050  9.45336E-01  9.67110E-01 -2.24530E-02
    5551.172     48.037   4.100  9.43601E-01  9.62802E-01 -1.99523E-02
    5552.744     49.609   4.150  9.43262E-01  9.58494E-01 -1.59514E-02
    5554.334     51.200   4.200  9.44343E-01  9.54186E-01 -1.03884E-02
    5555.944     52.809   4.250  9.46590E-01  9.49659E-01 -3.26154E-03
    5557.573     54.438   4.300  9.49752E-01  9.45132E-01  4.94455E-03
    5559.221     56.086   4.350  9.53292E-01  9.40605E-01  1.36725E-02
    5560.888     57.753   4.400  9.56503E-01  9.36077E-01  2.21678E-02
    5562.574     59.439   4.450  9.59728E-01  9.32770E-01  2.93869E-02
    5564.278     61.144   4.500  9.60996E-01  9.29463E-01  3.45279E-02
    5566.002     62.868   4.550  9.59727E-01  9.26156E-01  3.69241E-02
    5567.746     64.611   4.600  9.55597E-01  9.22849E-01  3.61820E-02
    5569.508     66.373   4.650  9.50298E-01  9.21290E-01  3.20936E-02
    5571.289     68.154   4.700  9.42427E-01  9.19732E-01  2.51432E-02
    5573.089     69.954   4.750  9.32545E-01  9.18173E-01  1.59440E-02
    5574.908     71.774   4.800  9.21384E-01  9.16615E-01  5.29815E-03
    5576.747     73.612   4.850  9.11367E-01  9.16773E-01 -5.99655E-03
    5578.604     75.469   4.900  9.01707E-01  9.16930E-01 -1.68603E-02
    5580.480     77.346   4.950  8.93120E-01  9.17088E-01 -2.65059E-02
    5582.376     79.241   5.000  8.86199E-01  9.17245E-01 -3.42825E-02
    5584.290     81.156   5.050  8.82624E-01  9.18564E-01 -3.95536E-02
    5586.224     83.089   5.100  8.81628E-01  9.19883E-01 -4.19602E-02
    5588.177     85.042   5.150  8.83476E-01  9.21202E-01 -4.12413E-02
    5590.148     87.014   5.200  8.88314E-01  9.22521E-01 -3.72702E-02
    5592.139     89.004   5.250  8.96035E-01  9.23496E-01 -2.98455E-02
    5594.149     91.014   5.300  9.06446E-01  9.24470E-01 -1.95402E-02
    5596.178     93.043   5.350  9.18930E-01  9.25445E-01 -7.04480E-03
    5598.225     95.091   5.400  9.32554E-01  9.26419E-01  6.61835E-03
    5600.292     97.158   5.450  9.45980E-01  9.27266E-01  2.01323E-02
    5602.378     99.244   5.500  9.57908E-01  9.28112E-01  3.19634E-02
    5604.483    101.349   5.550  9.67066E-01  9.28959E-01  4.07668E-02
    5606.607    103.473   5.600  9.72477E-01  9.29805E-01  4.55236E-02
    5608.751    105.616   5.650  9.73999E-01  9.31115E-01  4.55693E-02
    5610.913    107.778   5.700  9.71340E-01  9.32425E-01  4.11896E-02
    5613.094    109.959   5.750  9.65157E-01  9.33734E-01  3.31286E-02
    5615.294    112.159   5.800  9.56521E-01  9.35044E-01  2.25544E-02
    5617.513    114.379   5.850  9.42737E-01  9.32694E-01  1.05800E-02
    5619.752    116.617   5.900  9.29184E-01  9.30344E-01 -1.22603E-03
    5622.009    118.875   5.950  9.16829E-01  9.27994E-01 -1.18376E-02
    5624.286    121.151   6.000  9.06230E-01  9.25644E-01 -2.06488E-02
    5626.581    123.447   6.050  8.97948E-01  9.23540E-01 -2.72877E-02
    5628.896    125.761   6.100  8.91508E-01  9.21437E-01 -3.19912E-02
    5631.229    128.095   6.150  8.86736E-01  9.19333E-01 -3.49311E-02
    5633.582    130.447   6.200  8.83566E-01  9.17230E-01 -3.61634E-02
    5635.954    132.819   6.250  8.82141E-01  9.15127E-01 -3.55237E-02
    5638.345    135.210   6.300  8.82786E-01  9.13023E-01 -3.26458E-02
    5640.754    137.620   6.350  8.85878E-01  9.10920E-01 -2.71041E-02
    5643.183    140.049   6.400  8.91636E-01  9.08816E-01 -1.86419E-02
    5645.631    142.496   6.450  8.99902E-01  9.06713E-01 -7.40947E-03
    5648.098    144.963   6.500  9.09991E-01  9.04610E-01  5.86877E-03
    5650.584    147.449   6.550  9.21487E-01  9.03350E-01  1.98208E-02
    5653.089    149.954   6.600  9.31897E-01  9.02090E-01  3.26403E-02
    5655.613    152.479   6.650  9.39493E-01  9.00830E-01  4.24241E-02
    5658.156    155.022   6.700  9.42802E-01  8.99571E-01  4.75340E-02
    5660.719    157.584   6.750  9.40947E-01  8.98311E-01  4.69758E-02
    5663.300    160.165   6.800  9.33882E-01  8.97051E-01  4.06628E-02
    5665.900    162.766   6.850  9.22445E-01  8.95792E-01  2.94880E-02
    5668.520    165.385   6.900  9.08220E-01  8.94532E-01  1.51746E-02
    5671.158    168.023   6.950  8.93214E-01  8.93272E-01 -6.42833E-05
    5673.816    170.681   7.000  8.79456E-01  8.92013E-01 -1.39787E-02
    5676.492    173.357   7.050  8.69374E-01  8.91608E-01 -2.47585E-02
    5679.188    176.053   7.100  8.63168E-01  8.91203E-01 -3.12290E-02
    5681.902    178.767   7.150  8.60954E-01  8.90798E-01 -3.32553E-02
    5684.636    181.501   7.200  8.62101E-01  8.90393E-01 -3.15360E-02
    5687.389    184.254   7.250  8.65497E-01  8.89988E-01 -2.73085E-02
    5690.160    187.026   7.300  8.69904E-01  8.89583E-01 -2.19495E-02
    5692.951    189.816   7.350  8.74314E-01  8.89179E-01 -1.65853E-02
    5695.761    192.626   7.400  8.78181E-01  8.88774E-01 -1.18229E-02
    5698.590    195.455   7.450  8.81497E-01  8.88369E-01 -7.67208E-03
    5701.438    198.303   7.500  8.84677E-01  8.87964E-01 -3.67096E-03
    5704.305    201.170   7.550  8.87592E-01  8.86783E-01  9.04257E-04
    5707.191    204.056   7.600  8.91403E-01  8.85601E-01  6.49176E-03
    5710.096    206.961   7.650  8.96143E-01  8.84420E-01  1.31300E-02
    5713.020    209.886   7.700  9.01307E-01  8.83239E-01  2.02571E-02
    5715.963    212.829   7.750  9.05908E-01  8.82058E-01  2.67666E-02
    5718.926    215.791   7.800  9.08701E-01  8.80876E-01  3.12570E-02
    5721.907    218.772   7.850  9.08515E-01  8.79695E-01  3.24073E-02
    5724.907    221.773   7.900  9.04609E-01  8.78514E-01  2.93717E-02
    5727.927    224.792   7.950  8.96927E-01  8.77332E-01  2.20768E-02
    5730.965    227.831   8.000  8.86199E-01  8.76151E-01  1.13315E-02
    5734.023    230.888   8.050  8.73150E-01  8.74298E-01 -1.29789E-03
    5737.099    233.965   8.100  8.60268E-01  8.72445E-01 -1.38012E-02
    5740.195    237.060   8.150  8.49339E-01  8.70592E-01 -2.41489E-02
    5743.310    240.175   8.200  8.41758E-01  8.68739E-01 -3.07344E-02
    5746.443    243.309   8.250  8.38243E-01  8.66887E-01 -3.27095E-02
    5749.596    246.461   8.300  8.38712E-01  8.65034E-01 -3.01335E-02
    5752.768    249.633   8.350  8.42354E-01  8.63181E-01 -2.39027E-02
    5755.959    252.824   8.400  8.47867E-01  8.61328E-01 -1.54883E-02
    5759.169    256.034   8.450  8.53790E-01  8.59475E-01 -6.55750E-03
    5762.398    259.263   8.500  8.58847E-01  8.57622E-01  1.41646E-03
    5765.646    262.511   8.550  8.62664E-01  8.56219E-01  7.46983E-03
    5768.913    265.778   8.600  8.64535E-01  8.54816E-01  1.12883E-02
    5772.199    269.064   8.650  8.64673E-01  8.53412E-01  1.31068E-02
    5775.504    272.369   8.700  8.63618E-01  8.52009E-01  1.35411E-02
    5778.828    275.693   8.750  8.61995E-01  8.50606E-01  1.33132E-02
    5782.171    279.037   8.800  8.60287E-01  8.49203E-01  1.29853E-02
    5785.534    282.399   8.850  8.58687E-01  8.47800E-01  1.27823E-02
    5788.915    285.780   8.900  8.57062E-01  8.46397E-01  1.25490E-02
    5792.316    289.181   8.950  8.55041E-01  8.44993E-01  1.18477E-02
    5795.735    292.600   9.000  8.52183E-01  8.43590E-01  1.01552E-02
    5799.174    296.039   9.050  8.48424E-01  8.42452E-01  7.06759E-03
    5802.631    299.496   9.100  8.43446E-01  8.41315E-01  2.52618E-03
    5806.108    302.973   9.150  8.37580E-01  8.40177E-01 -3.08258E-03
    5809.603    306.469   9.200  8.31469E-01  8.39039E-01 -8.99800E-03
    5813.118    309.983   9.250  8.25928E-01  8.37901E-01 -1.42526E-02
    5816.652    313.517   9.300  8.21741E-01  8.36764E-01 -1.79071E-02
    5820.205    317.070   9.350  8.19473E-01  8.35626E-01 -1.92835E-02
    5823.777    320.642   9.400  8.19322E-01  8.34488E-01 -1.81313E-02
    5827.367    324.233   9.450  8.21087E-01  8.33350E-01 -1.46817E-02
    5830.977    327.843   9.500  8.24224E-01  8.32212E-01 -9.57835E-03
    5834.606    331.472   9.550  8.27699E-01  8.30784E-01 -3.70481E-03
    5838.254    335.120   9.600  8.31059E-01  8.29355E-01  2.05089E-03
    5841.922    338.787   9.650  8.33667E-01  8.27926E-01  6.92154E-03
    5845.608    342.473   9.700  8.35133E-01  8.26497E-01  1.04313E-02
    5849.313    346.178   9.750  8.35344E-01  8.25068E-01  1.24353E-02
    5853.037    349.902   9.800  8.34417E-01  8.23639E-01  1.30661E-02
    5856.780    353.646   9.850  8.32597E-01  8.22211E-01  1.26153E-02
    5860.543    357.408   9.900  8.30148E-01  8.20782E-01  1.13982E-02
    5864.324    361.190   9.950  8.27266E-01  8.19353E-01  9.64716E-03
    5868.125    364.990  10.000  8.24038E-01  8.17924E-01  7.46733E-03
