# # Once                                                         FEFF 9.6.4  
# # POT  SCF  30  6.0000   0, core-hole, AFOLP (folp(0)= 1.150)
# # Abs   Z=27 Rmt= 1.378 Rnm= 1.432 K  shell
# # Pot 1 Z=62 Rmt= 1.687 Rnm= 1.741
# # Pot 2 Z=27 Rmt= 1.386 Rnm= 1.441
# # Gam_ch=1.436E+00 H-L exch Vi= 0.000E+00 Vr= 0.000E+00
# # Mu=-1.657E+01 kf=1.954E+00 Vint=-2.390E+01 Rs_int= 1.856
# # PATH  Rmax= 6.000,  Keep_limit= 0.00, Heap_limit 0.00  Pwcrit= 2.50%
#  S02=1.000  Temp=   0.00  Debye_temp=   0.00  Global_sig2= 0.00000
#  Energy zero shift, vr, vi    0.00000E+00   0.00000E+00
#  Curved wave amplitude ratio filter   4.000%
#     file         sig2 tot  cw amp ratio   deg  nlegs   reff  inp sig2
#           1       0.00000    100.00      4.00     2   2.4711
#           2       0.00000     93.12      4.00     2   2.5595
#           3       0.00000     21.82      1.00     2   2.6420
#           4       0.00000     60.21      3.00     2   3.2591
#           5       0.00000      7.94      1.00     2   4.1347
#           6       0.00000     14.82      2.00     2   4.2500
#           7       0.00000     29.12      4.00     2   4.2800
#           8       0.00000     56.49      8.00     2   4.3317
#           9       0.00000     13.72      2.00     2   4.3809
#          10       0.00000     16.97      2.00     2   4.7785
#          11       0.00000     40.55      8.00     2   4.9162
#          12       0.00000     29.99      6.00     2   4.9421
#          13       0.00000      7.79      2.00     2   5.4137
#          14       0.00000     28.83      8.00     2   5.5656
#    14/  15 paths used
#  xsedge+50, used to normalize mu           2.9094E-04
#  -----------------------------------------------------------------------
#  omega    e    k    mu    mu0     chi     @#
    7718.053    -16.569   0.000  4.56400E-01  2.93900E-01  3.23020E-01
    7718.062    -16.560   0.050  4.59794E-01  2.98623E-01  3.19584E-01
    7718.091    -16.531   0.100  4.63156E-01  3.03346E-01  3.16101E-01
    7718.138    -16.484   0.150  4.73263E-01  3.17456E-01  3.05915E-01
    7718.205    -16.417   0.200  4.83093E-01  3.31566E-01  2.95340E-01
    7718.291    -16.331   0.250  4.98327E-01  3.53555E-01  2.78830E-01
    7718.396    -16.226   0.300  5.12900E-01  3.75544E-01  2.61448E-01
    7718.519    -16.103   0.350  5.28867E-01  4.01191E-01  2.39165E-01
    7718.662    -15.960   0.400  5.43740E-01  4.26838E-01  2.15563E-01
    7718.824    -15.798   0.450  5.54844E-01  4.51678E-01  1.86586E-01
    7719.005    -15.617   0.500  5.64390E-01  4.76518E-01  1.55936E-01
    7719.205    -15.417   0.550  5.66480E-01  4.98935E-01  1.17261E-01
    7719.424    -15.198   0.600  5.66558E-01  5.21352E-01  7.68112E-02
    7719.662    -14.960   0.650  5.57202E-01  5.41814E-01  2.55331E-02
    7719.919    -14.702   0.700  5.45564E-01  5.62276E-01 -2.70953E-02
    7720.196    -14.426   0.750  5.23456E-01  5.81572E-01 -9.19206E-02
    7720.491    -14.131   0.800  4.99398E-01  6.00868E-01 -1.56664E-01
    7720.805    -13.817   0.850  4.65401E-01  6.19498E-01 -2.32062E-01
    7721.139    -13.483   0.900  4.31276E-01  6.38129E-01 -3.04025E-01
    7721.491    -13.131   0.950  3.90820E-01  6.56271E-01 -3.80718E-01
    7721.863    -12.759   1.000  3.54462E-01  6.74413E-01 -4.48049E-01
    7722.253    -12.369   1.050  3.19610E-01  6.92031E-01 -5.09451E-01
    7722.663    -11.959   1.100  2.95225E-01  7.09650E-01 -5.54080E-01
    7723.091    -11.531   1.150  2.81684E-01  7.26565E-01 -5.81910E-01
    7723.539    -11.083   1.200  2.84384E-01  7.43481E-01 -5.87768E-01
    7724.006    -10.616   1.250  3.04112E-01  7.59480E-01 -5.71426E-01
    7724.491    -10.130   1.300  3.41827E-01  7.75478E-01 -5.33589E-01
    7724.996     -9.626   1.350  3.96635E-01  7.90327E-01 -4.75818E-01
    7725.520     -9.102   1.400  4.65783E-01  8.05176E-01 -4.03035E-01
    7726.063     -8.559   1.450  5.46726E-01  8.18666E-01 -3.17930E-01
    7726.625     -7.997   1.500  6.34185E-01  8.32156E-01 -2.27921E-01
    7727.206     -7.416   1.550  7.24955E-01  8.44122E-01 -1.35388E-01
    7727.806     -6.816   1.600  8.12560E-01  8.56089E-01 -4.88110E-02
    7728.425     -6.197   1.650  8.94053E-01  8.66435E-01  3.06326E-02
    7729.063     -5.558   1.700  9.63418E-01  8.76781E-01  9.50600E-02
    7729.721     -4.901   1.750  1.01863E+00  8.85458E-01  1.44862E-01
    7730.397     -4.225   1.800  1.05629E+00  8.94135E-01  1.74876E-01
    7731.092     -3.530   1.850  1.07580E+00  9.01143E-01  1.87137E-01
    7731.807     -2.815   1.900  1.07835E+00  9.08150E-01  1.81177E-01
    7732.540     -2.082   1.950  1.06588E+00  9.13449E-01  1.61524E-01
    7733.293     -1.329   2.000  1.04376E+00  9.18748E-01  1.31860E-01
    7734.064     -0.558   2.050  1.01371E+00  9.21522E-01  9.70994E-02
    7734.855      0.233   2.100  9.83478E-01  9.24296E-01  6.22438E-02
    7735.664      1.042   2.150  9.58039E-01  9.27070E-01  3.25238E-02
    7736.493      1.871   2.200  9.40690E-01  9.29843E-01  1.13742E-02
    7737.341      2.719   2.250  9.32932E-01  9.33451E-01 -5.44976E-04
    7738.207      3.586   2.300  9.35249E-01  9.37059E-01 -1.89891E-03
    7739.093      4.471   2.350  9.44316E-01  9.40666E-01  3.83248E-03
    7739.998      5.376   2.400  9.56078E-01  9.44274E-01  1.24009E-02
    7740.922      6.300   2.450  9.68675E-01  9.49501E-01  2.00857E-02
    7741.865      7.243   2.500  9.79071E-01  9.54728E-01  2.54273E-02
    7742.827      8.205   2.550  9.86561E-01  9.59955E-01  2.77109E-02
    7743.808      9.186   2.600  9.91212E-01  9.65182E-01  2.70339E-02
    7744.808     10.186   2.650  9.90434E-01  9.67782E-01  2.34685E-02
    7745.827     11.206   2.700  9.88240E-01  9.70383E-01  1.84563E-02
    7746.866     12.244   2.750  9.85415E-01  9.72983E-01  1.28179E-02
    7747.923     13.301   2.800  9.82682E-01  9.75583E-01  7.30164E-03
    7748.999     14.377   2.850  9.76659E-01  9.77352E-01 -7.10701E-04
    7750.095     15.473   2.900  9.72093E-01  9.79120E-01 -7.19482E-03
    7751.209     16.587   2.950  9.69679E-01  9.80888E-01 -1.14523E-02
    7752.342     17.721   3.000  9.69697E-01  9.82656E-01 -1.32103E-02
    7753.495     18.873   3.050  9.68286E-01  9.83431E-01 -1.54095E-02
    7754.667     20.045   3.100  9.70047E-01  9.84206E-01 -1.43789E-02
    7755.857     21.235   3.150  9.74967E-01  9.84981E-01 -1.01504E-02
    7757.067     22.445   3.200  9.82609E-01  9.85756E-01 -3.18377E-03
    7758.296     23.674   3.250  9.90840E-01  9.86454E-01  4.43074E-03
    7759.543     24.921   3.300  1.00095E+00  9.87153E-01  1.39228E-02
    7760.810     26.188   3.350  1.01203E+00  9.87851E-01  2.43669E-02
    7762.096     27.474   3.400  1.02293E+00  9.88549E-01  3.46012E-02
    7763.401     28.779   3.450  1.03212E+00  9.89007E-01  4.33242E-02
    7764.725     30.103   3.500  1.03937E+00  9.89464E-01  5.00757E-02
    7766.068     31.446   3.550  1.04347E+00  9.89922E-01  5.36591E-02
    7767.430     32.808   3.600  1.04340E+00  9.90379E-01  5.30473E-02
    7768.811     34.189   3.650  1.03904E+00  9.91080E-01  4.79275E-02
    7770.211     35.589   3.700  1.02996E+00  9.91780E-01  3.81032E-02
    7771.631     37.009   3.750  1.01645E+00  9.92480E-01  2.38913E-02
    7773.069     38.447   3.800  9.99469E-01  9.93181E-01  6.26004E-03
    7774.526     39.904   3.850  9.81108E-01  9.93825E-01 -1.26423E-02
    7776.002     41.381   3.900  9.62806E-01  9.94468E-01 -3.14329E-02
    7777.498     42.876   3.950  9.46549E-01  9.95112E-01 -4.81433E-02
    7779.012     44.390   4.000  9.34182E-01  9.95756E-01 -6.09562E-02
    7780.546     45.924   4.050  9.27168E-01  9.96528E-01 -6.85797E-02
    7782.098     47.477   4.100  9.25765E-01  9.97301E-01 -7.06443E-02
    7783.670     49.048   4.150  9.29687E-01  9.98074E-01 -6.74509E-02
    7785.261     50.639   4.200  9.37761E-01  9.98846E-01 -6.01760E-02
    7786.870     52.249   4.250  9.48030E-01  9.99653E-01 -5.08010E-02
    7788.499     53.877   4.300  9.58473E-01  1.00046E+00 -4.12752E-02
    7790.147     55.525   4.350  9.67066E-01  1.00127E+00 -3.35860E-02
    7791.814     57.192   4.400  9.72362E-01  1.00207E+00 -2.91466E-02
    7793.500     58.878   4.450  9.74171E-01  1.00286E+00 -2.81208E-02
    7795.205     60.583   4.500  9.73071E-01  1.00365E+00 -2.99463E-02
    7796.929     62.307   4.550  9.70882E-01  1.00443E+00 -3.28345E-02
    7798.672     64.050   4.600  9.70244E-01  1.00522E+00 -3.42010E-02
    7800.434     65.812   4.650  9.73913E-01  1.00556E+00 -3.09286E-02
    7802.215     67.593   4.700  9.84526E-01  1.00590E+00 -2.08766E-02
    7804.015     69.393   4.750  1.00350E+00  1.00624E+00 -2.66943E-03
    7805.835     71.213   4.800  1.03071E+00  1.00658E+00  2.35469E-02
    7807.673     73.051   4.850  1.06406E+00  1.00676E+00  5.59037E-02
    7809.530     74.908   4.900  1.09990E+00  1.00693E+00  9.06900E-02
    7811.407     76.785   4.950  1.13341E+00  1.00711E+00  1.23185E-01
    7813.302     78.680   5.000  1.15934E+00  1.00729E+00  1.48278E-01
    7815.217     80.595   5.050  1.17246E+00  1.00722E+00  1.61183E-01
    7817.150     82.528   5.100  1.16992E+00  1.00714E+00  1.58820E-01
    7819.103     84.481   5.150  1.15063E+00  1.00706E+00  1.40111E-01
    7821.075     86.453   5.200  1.11596E+00  1.00699E+00  1.06376E-01
    7823.065     88.443   5.250  1.06877E+00  1.00644E+00  6.08752E-02
    7825.075     90.453   5.300  1.01559E+00  1.00589E+00  9.48394E-03
    7827.104     92.482   5.350  9.62845E-01  1.00534E+00 -4.15370E-02
    7829.152     94.530   5.400  9.16707E-01  1.00479E+00 -8.61407E-02
    7831.219     96.597   5.450  8.82142E-01  1.00413E+00 -1.19390E-01
    7833.305     98.683   5.500  8.62212E-01  1.00347E+00 -1.38356E-01
    7835.410    100.788   5.550  8.57419E-01  1.00281E+00 -1.42513E-01
    7837.534    102.912   5.600  8.65983E-01  1.00215E+00 -1.33575E-01
    7839.677    105.055   5.650  8.84454E-01  1.00133E+00 -1.14759E-01
    7841.839    107.217   5.700  9.08165E-01  1.00051E+00 -9.07579E-02
    7844.020    109.398   5.750  9.32581E-01  9.99682E-01 -6.60151E-02
    7846.220    111.599   5.800  9.54035E-01  9.98859E-01 -4.41421E-02
    7848.440    113.818   5.850  9.70284E-01  9.97875E-01 -2.71999E-02
    7850.678    116.056   5.900  9.80767E-01  9.96891E-01 -1.59124E-02
    7852.936    118.314   5.950  9.86555E-01  9.95907E-01 -9.23904E-03
    7855.212    120.590   6.000  9.89787E-01  9.94923E-01 -5.07975E-03
    7857.508    122.886   6.050  9.93181E-01  9.94005E-01 -8.15328E-04
    7859.822    125.200   6.100  9.98804E-01  9.93086E-01  5.66783E-03
    7862.156    127.534   6.150  1.00801E+00  9.92167E-01  1.57215E-02
    7864.508    129.887   6.200  1.02098E+00  9.91248E-01  2.95381E-02
    7866.880    132.258   6.250  1.03672E+00  9.90329E-01  4.61364E-02
    7869.271    134.649   6.300  1.05330E+00  9.89411E-01  6.36090E-02
    7871.681    137.059   6.350  1.06831E+00  9.88492E-01  7.95523E-02
    7874.110    139.488   6.400  1.07934E+00  9.87573E-01  9.15684E-02
    7876.557    141.936   6.450  1.08448E+00  9.86654E-01  9.77246E-02
    7879.024    144.403   6.500  1.08261E+00  9.85735E-01  9.68796E-02
    7881.510    146.889   6.550  1.07323E+00  9.84942E-01  8.83947E-02
    7884.016    149.394   6.600  1.05740E+00  9.84149E-01  7.34227E-02
    7886.540    151.918   6.650  1.03663E+00  9.83355E-01  5.34497E-02
    7889.083    154.461   6.700  1.01278E+00  9.82562E-01  3.03524E-02
    7891.645    157.023   6.750  9.87837E-01  9.81768E-01  6.10269E-03
    7894.226    159.604   6.800  9.63620E-01  9.80975E-01 -1.74715E-02
    7896.827    162.205   6.850  9.41647E-01  9.80182E-01 -3.88358E-02
    7899.446    164.824   6.900  9.23081E-01  9.79388E-01 -5.68099E-02
    7902.084    167.462   6.950  9.08736E-01  9.78595E-01 -7.05602E-02
    7904.742    170.120   7.000  8.99119E-01  9.77801E-01 -7.95605E-02
    7907.418    172.796   7.050  8.94605E-01  9.76998E-01 -8.34149E-02
    7910.114    175.492   7.100  8.95114E-01  9.76196E-01 -8.21868E-02
    7912.829    178.207   7.150  9.00322E-01  9.75393E-01 -7.61875E-02
    7915.562    180.940   7.200  9.09618E-01  9.74590E-01 -6.60186E-02
    7918.315    183.693   7.250  9.22109E-01  9.73787E-01 -5.25752E-02
    7921.087    186.465   7.300  9.36652E-01  9.72984E-01 -3.70083E-02
    7923.877    189.256   7.350  9.51949E-01  9.72181E-01 -2.06339E-02
    7926.687    192.065   7.400  9.66687E-01  9.71378E-01 -4.79006E-03
    7929.516    194.894   7.450  9.79703E-01  9.70575E-01  9.33173E-03
    7932.364    197.742   7.500  9.90139E-01  9.69772E-01  2.08479E-02
    7935.231    200.609   7.550  9.97419E-01  9.68831E-01  2.93052E-02
    7938.117    203.495   7.600  1.00161E+00  9.67889E-01  3.46170E-02
    7941.022    206.401   7.650  1.00314E+00  9.66947E-01  3.72045E-02
    7943.947    209.325   7.700  1.00270E+00  9.66005E-01  3.77774E-02
    7946.890    212.268   7.750  1.00110E+00  9.65064E-01  3.71504E-02
    7949.852    215.230   7.800  9.99045E-01  9.64122E-01  3.60541E-02
    7952.833    218.211   7.850  9.97019E-01  9.63180E-01  3.49844E-02
    7955.834    221.212   7.900  9.95197E-01  9.62238E-01  3.41228E-02
    7958.853    224.231   7.950  9.93454E-01  9.61297E-01  3.33411E-02
    7961.892    227.270   8.000  9.91446E-01  9.60355E-01  3.22814E-02
    7964.949    230.327   8.050  9.88510E-01  9.59223E-01  3.04529E-02
    7968.026    233.404   8.100  9.84498E-01  9.58092E-01  2.74978E-02
    7971.121    236.499   8.150  9.79130E-01  9.56960E-01  2.31196E-02
    7974.236    239.614   8.200  9.72301E-01  9.55828E-01  1.72035E-02
    7977.370    242.748   8.250  9.64083E-01  9.54696E-01  9.81757E-03
    7980.522    245.901   8.300  9.54688E-01  9.53565E-01  1.17663E-03
    7983.694    249.072   8.350  9.44418E-01  9.52433E-01 -8.40807E-03
    7986.885    252.263   8.400  9.33629E-01  9.51301E-01 -1.85652E-02
    7990.095    255.473   8.450  9.22730E-01  9.50170E-01 -2.88685E-02
    7993.324    258.702   8.500  9.12203E-01  9.49038E-01 -3.88094E-02
    7996.572    261.950   8.550  9.02694E-01  9.47985E-01 -4.77764E-02
    7999.839    265.217   8.600  8.94859E-01  9.46932E-01 -5.49961E-02
    8003.125    268.503   8.650  8.89581E-01  9.45878E-01 -5.95299E-02
    8006.430    271.808   8.700  8.87787E-01  9.44825E-01 -6.03870E-02
    8009.755    275.133   8.750  8.90285E-01  9.43772E-01 -5.66960E-02
    8013.098    278.476   8.800  8.97559E-01  9.42719E-01 -4.79277E-02
    8016.460    281.838   8.850  9.09555E-01  9.41666E-01 -3.41201E-02
    8019.841    285.220   8.900  9.25533E-01  9.40612E-01 -1.60425E-02
    8023.242    288.620   8.950  9.44030E-01  9.39559E-01  4.76184E-03
    8026.661    292.039   9.000  9.62973E-01  9.38506E-01  2.60930E-02
    8030.100    295.478   9.050  9.80072E-01  9.37520E-01  4.54222E-02
    8033.557    298.936   9.100  9.92883E-01  9.36534E-01  6.02066E-02
    8037.034    302.412   9.150  9.99476E-01  9.35548E-01  6.83688E-02
    8040.530    305.908   9.200  9.98771E-01  9.34563E-01  6.87340E-02
    8044.044    309.422   9.250  9.90797E-01  9.33577E-01  6.13106E-02
    8047.578    312.956   9.300  9.76744E-01  9.32591E-01  4.73545E-02
    8051.131    316.509   9.350  9.58793E-01  9.31605E-01  2.91869E-02
    8054.703    320.081   9.400  9.39728E-01  9.30619E-01  9.78768E-03
    8058.294    323.672   9.450  9.22420E-01  9.29633E-01 -7.75843E-03
    8061.904    327.282   9.500  9.09280E-01  9.28647E-01 -2.08497E-02
    8065.533    330.911   9.550  9.01845E-01  9.27705E-01 -2.78660E-02
    8069.181    334.559   9.600  9.00391E-01  9.26762E-01 -2.84435E-02
    8072.848    338.226   9.650  9.04025E-01  9.25820E-01 -2.35285E-02
    8076.534    341.912   9.700  9.10868E-01  9.24878E-01 -1.51377E-02
    8080.239    345.617   9.750  9.18493E-01  9.23935E-01 -5.88619E-03
    8083.963    349.342   9.800  9.24479E-01  9.22993E-01  1.60915E-03
    8087.707    353.085   9.850  9.26956E-01  9.22050E-01  5.31563E-03
    8091.469    356.847   9.900  9.25008E-01  9.21108E-01  4.23033E-03
    8095.251    360.629   9.950  9.18863E-01  9.20165E-01 -1.41421E-03
    8099.051    364.429  10.000  9.09810E-01  9.19223E-01 -1.02277E-02
    8102.871    368.249  10.050  8.99588E-01  9.18100E-01 -2.01392E-02
    8106.709    372.087  10.100  8.90765E-01  9.16977E-01 -2.85492E-02
    8110.567    375.945  10.150  8.85431E-01  9.15855E-01 -3.31743E-02
    8114.443    379.821  10.200  8.84946E-01  9.14732E-01 -3.25161E-02
    8118.339    383.717  10.250  8.89634E-01  9.13609E-01 -2.62037E-02
    8122.254    387.632  10.300  8.98706E-01  9.12486E-01 -1.50791E-02
    8126.188    391.566  10.350  9.10440E-01  9.11364E-01 -1.01188E-03
    8130.140    395.519  10.400  9.22556E-01  9.10241E-01  1.35075E-02
    8134.112    399.491  10.450  9.32707E-01  9.09118E-01  2.59017E-02
    8138.103    403.481  10.500  9.38964E-01  9.07995E-01  3.40450E-02
    8142.113    407.491  10.550  9.40206E-01  9.06873E-01  3.66873E-02
    8146.142    411.521  10.600  9.36313E-01  9.05750E-01  3.36778E-02
    8150.191    415.569  10.650  9.28146E-01  9.04627E-01  2.59466E-02
    8154.258    419.636  10.700  9.17322E-01  9.03504E-01  1.52618E-02
    8158.344    423.722  10.750  9.05841E-01  9.02382E-01  3.82595E-03
    8162.449    427.827  10.800  8.95666E-01  9.01259E-01 -6.19212E-03
    8166.573    431.952  10.850  8.88330E-01  9.00136E-01 -1.30860E-02
    8170.717    436.095  10.900  8.84674E-01  8.99013E-01 -1.59134E-02
    8174.879    440.257  10.950  8.84734E-01  8.97891E-01 -1.46175E-02
    8179.061    444.439  11.000  8.87817E-01  8.96768E-01 -9.95702E-03
    8183.261    448.639  11.050  8.92556E-01  8.95567E-01 -3.35388E-03
    8187.481    452.859  11.100  8.97685E-01  8.94366E-01  3.70152E-03
    8191.719    457.097  11.150  9.01829E-01  8.93165E-01  9.67469E-03
    8195.977    461.355  11.200  9.03925E-01  8.91965E-01  1.33737E-02
    8200.254    465.632  11.250  9.03392E-01  8.90764E-01  1.41385E-02
    8204.549    469.928  11.300  9.00182E-01  8.89563E-01  1.19047E-02
    8208.864    474.242  11.350  8.94727E-01  8.88362E-01  7.14551E-03
    8213.198    478.576  11.400  8.87804E-01  8.87161E-01  7.22092E-04
    8217.551    482.929  11.450  8.80351E-01  8.85960E-01 -6.31322E-03
    8221.923    487.301  11.500  8.73300E-01  8.84760E-01 -1.29144E-02
    8226.314    491.692  11.550  8.67429E-01  8.83559E-01 -1.82017E-02
    8230.724    496.102  11.600  8.63276E-01  8.82358E-01 -2.15619E-02
    8235.153    500.531  11.650  8.61107E-01  8.81157E-01 -2.26852E-02
    8239.601    504.979  11.700  8.60937E-01  8.79956E-01 -2.15479E-02
    8244.069    509.447  11.750  8.62569E-01  8.78755E-01 -1.83618E-02
    8248.555    513.933  11.800  8.65660E-01  8.77555E-01 -1.35108E-02
    8253.060    518.438  11.850  8.69769E-01  8.76354E-01 -7.48989E-03
    8257.584    522.963  11.900  8.74402E-01  8.75153E-01 -8.55265E-04
    8262.128    527.506  11.950  8.79050E-01  8.73952E-01  5.81445E-03
    8266.690    532.068  12.000  8.83217E-01  8.72751E-01  1.19522E-02
    8271.272    536.650  12.050  8.86457E-01  8.71501E-01  1.71041E-02
    8275.872    541.251  12.100  8.88354E-01  8.70251E-01  2.07331E-02
    8280.492    545.870  12.150  8.88639E-01  8.69000E-01  2.25243E-02
    8285.131    550.509  12.200  8.87203E-01  8.67750E-01  2.23433E-02
    8289.788    555.166  12.250  8.84115E-01  8.66500E-01  2.02615E-02
    8294.465    559.843  12.300  8.79620E-01  8.65249E-01  1.65536E-02
    8299.161    564.539  12.350  8.74110E-01  8.63999E-01  1.16639E-02
    8303.876    569.254  12.400  8.68067E-01  8.62749E-01  6.14330E-03
    8308.610    573.988  12.450  8.61990E-01  8.61498E-01  5.68574E-04
    8313.363    578.741  12.500  8.56329E-01  8.60248E-01 -4.54064E-03
    8318.135    583.513  12.550  8.51423E-01  8.58998E-01 -8.78878E-03
    8322.926    588.304  12.600  8.47470E-01  8.57747E-01 -1.19417E-02
    8327.736    593.114  12.650  8.44528E-01  8.56497E-01 -1.39281E-02
    8332.565    597.943  12.700  8.42540E-01  8.55247E-01 -1.48074E-02
    8337.413    602.791  12.750  8.41385E-01  8.53996E-01 -1.47180E-02
