# # Once                                                         FEFF 9.6.4  
# # POT  SCF 100  6.0000   0, core-hole, AFOLP (folp(0)= 1.150)
# # Abs   Z=57 Rmt= 1.902 Rnm= 1.936 L3 shell
# # Pot 1 Z=26 Rmt= 1.430 Rnm= 1.609
# # Pot 2 Z=14 Rmt= 1.378 Rnm= 1.494
# # Pot 3 Z=57 Rmt= 1.944 Rnm= 1.987
# # Gam_ch=3.160E+00 H-L exch Vi= 0.000E+00 Vr= 0.000E+00
# # Mu=-1.293E+01 kf=1.685E+00 Vint=-1.677E+01 Rs_int= 2.153
# # PATH  Rmax= 6.000,  Keep_limit= 0.00, Heap_limit 0.00  Pwcrit= 2.50%
#  S02=0.800  Temp=  20.00  Debye_temp= 370.00  Global_sig2= 0.00150
#  Energy zero shift, vr, vi    0.00000E+00   0.00000E+00
#  Curved wave amplitude ratio filter   4.000%
#     file         sig2 tot  cw amp ratio   deg  nlegs   reff  inp sig2
#           1       0.00384    100.00     15.00     2   3.3344
#           2       0.00554     18.38      2.00     2   3.3344
#           3       0.00413      7.21     20.00     3   4.5286
#           4       0.00420      5.15     18.00     3   4.6163
#           5       0.00393      8.55      4.00     2   4.9796
#           6       0.00391     20.30     11.00     2   5.2204
#           8       0.00286      6.82      4.00     2   5.7500
#           9       0.00387      9.98      8.00     2   5.8871
#          10       0.00388     18.81     14.00     3   5.8927
#          11       0.00559      4.16      4.00     3   5.8927
#          12       0.00388      4.88      2.00     3   5.8927
#          13       0.00389     14.31      7.00     4   5.8982
#          15       0.00392      4.55      1.00     4   5.8982
#    13/  15 paths used
#  xsedge+50, used to normalize mu           8.3163E-04
#  -----------------------------------------------------------------------
#  omega    e    k    mu    mu0     chi     @#
    5487.126    -12.929   0.000  1.23193E+00  2.19724E+00 -3.33708E-01
    5487.136    -12.920   0.050  1.25303E+00  2.21314E+00 -3.25294E-01
    5487.164    -12.891   0.100  1.27534E+00  2.22904E+00 -3.16804E-01
    5487.212    -12.843   0.150  1.34391E+00  2.27686E+00 -2.93256E-01
    5487.279    -12.777   0.200  1.42191E+00  2.32469E+00 -2.69298E-01
    5487.364    -12.691   0.250  1.55157E+00  2.39852E+00 -2.36286E-01
    5487.469    -12.586   0.300  1.69783E+00  2.47235E+00 -2.02941E-01
    5487.593    -12.462   0.350  1.89409E+00  2.55591E+00 -1.68115E-01
    5487.736    -12.319   0.400  2.10106E+00  2.63948E+00 -1.32715E-01
    5487.898    -12.158   0.450  2.32746E+00  2.70425E+00 -9.61525E-02
    5488.079    -11.977   0.500  2.55006E+00  2.76902E+00 -5.79227E-02
    5488.279    -11.777   0.550  2.72917E+00  2.78329E+00 -1.54451E-02
    5488.498    -11.557   0.600  2.88390E+00  2.79756E+00  2.67503E-02
    5488.736    -11.319   0.650  2.94198E+00  2.74635E+00  6.60740E-02
    5488.993    -11.062   0.700  2.96436E+00  2.69514E+00  9.99375E-02
    5489.269    -10.786   0.750  2.88999E+00  2.59054E+00  1.20848E-01
    5489.565    -10.491   0.800  2.78998E+00  2.48594E+00  1.34418E-01
    5489.879    -10.176   0.850  2.64048E+00  2.35646E+00  1.35542E-01
    5490.212     -9.843   0.900  2.48454E+00  2.22698E+00  1.33525E-01
    5490.565     -9.491   0.950  2.33115E+00  2.09887E+00  1.28833E-01
    5490.936     -9.119   1.000  2.18300E+00  1.97076E+00  1.26560E-01
    5491.327     -8.729   1.050  2.06445E+00  1.85893E+00  1.29870E-01
    5491.736     -8.319   1.100  1.95075E+00  1.74709E+00  1.36851E-01
    5492.165     -7.890   1.150  1.86792E+00  1.65621E+00  1.49287E-01
    5492.613     -7.443   1.200  1.78302E+00  1.56533E+00  1.61481E-01
    5493.079     -6.976   1.250  1.71809E+00  1.49461E+00  1.72348E-01
    5493.565     -6.490   1.300  1.64454E+00  1.42390E+00  1.77178E-01
    5494.070     -5.985   1.350  1.57962E+00  1.37046E+00  1.73097E-01
    5494.594     -5.461   1.400  1.50389E+00  1.31702E+00  1.59525E-01
    5495.137     -4.919   1.450  1.43120E+00  1.27766E+00  1.33988E-01
    5495.699     -4.357   1.500  1.35111E+00  1.23831E+00  1.00683E-01
    5496.280     -3.776   1.550  1.27524E+00  1.21036E+00  5.87579E-02
    5496.880     -3.175   1.600  1.19953E+00  1.18241E+00  1.57295E-02
    5497.499     -2.556   1.650  1.13356E+00  1.16400E+00 -2.81869E-02
    5498.137     -1.918   1.700  1.07569E+00  1.14558E+00 -6.52132E-02
    5498.794     -1.261   1.750  1.03729E+00  1.13992E+00 -9.55736E-02
    5499.471     -0.585   1.800  1.01122E+00  1.13427E+00 -1.14360E-01
    5500.166      0.111   1.850  1.00768E+00  1.13980E+00 -1.22528E-01
    5500.880      0.825   1.900  1.01572E+00  1.14534E+00 -1.19933E-01
    5501.614      1.558   1.950  1.02367E+00  1.14037E+00 -1.08436E-01
    5502.366      2.311   2.000  1.03685E+00  1.13540E+00 -9.19545E-02
    5503.138      3.082   2.050  1.04124E+00  1.11938E+00 -7.34517E-02
    5503.928      3.873   2.100  1.04303E+00  1.10336E+00 -5.71465E-02
    5504.738      4.683   2.150  1.04189E+00  1.08734E+00 -4.33812E-02
    5505.567      5.511   2.200  1.03841E+00  1.07131E+00 -3.16471E-02
    5506.414      6.359   2.250  1.03970E+00  1.06212E+00 -2.16434E-02
    5507.281      7.226   2.300  1.04066E+00  1.05293E+00 -1.18773E-02
    5508.167      8.112   2.350  1.04111E+00  1.04373E+00 -2.54527E-03
    5509.072      9.016   2.400  1.04074E+00  1.03454E+00  6.04660E-03
    5509.996      9.940   2.450  1.04617E+00  1.03179E+00  1.40245E-02
    5510.939     10.883   2.500  1.05005E+00  1.02905E+00  2.04898E-02
    5511.901     11.845   2.550  1.05205E+00  1.02630E+00  2.51334E-02
    5512.882     12.826   2.600  1.05197E+00  1.02355E+00  2.77408E-02
    5513.882     13.827   2.650  1.05193E+00  1.02267E+00  2.85570E-02
    5514.901     14.846   2.700  1.04980E+00  1.02178E+00  2.73401E-02
    5515.939     15.884   2.750  1.04578E+00  1.02090E+00  2.42748E-02
    5516.997     16.941   2.800  1.04023E+00  1.02002E+00  1.97216E-02
    5518.073     18.018   2.850  1.03578E+00  1.02095E+00  1.44665E-02
    5519.168     19.113   2.900  1.03082E+00  1.02188E+00  8.72063E-03
    5520.283     20.227   2.950  1.02611E+00  1.02282E+00  3.21520E-03
    5521.416     21.361   3.000  1.02215E+00  1.02375E+00 -1.56739E-03
    5522.569     22.513   3.050  1.01493E+00  1.02346E+00 -8.33951E-03
    5523.740     23.685   3.100  1.01046E+00  1.02316E+00 -1.24364E-02
    5524.931     24.876   3.150  1.01190E+00  1.02287E+00 -1.07531E-02
    5526.141     26.085   3.200  1.01770E+00  1.02257E+00 -4.78294E-03
    5527.369     27.314   3.250  1.02137E+00  1.02203E+00 -6.42512E-04
    5528.617     28.562   3.300  1.02657E+00  1.02148E+00  5.02006E-03
    5529.884     29.829   3.350  1.03233E+00  1.02094E+00  1.12510E-02
    5531.170     31.114   3.400  1.03741E+00  1.02039E+00  1.68455E-02
    5532.475     32.419   3.450  1.03915E+00  1.01871E+00  2.02889E-02
    5533.799     33.743   3.500  1.03850E+00  1.01702E+00  2.13655E-02
    5535.142     35.086   3.550  1.03496E+00  1.01533E+00  1.95678E-02
    5536.504     36.448   3.600  1.02849E+00  1.01364E+00  1.48330E-02
    5537.885     37.829   3.650  1.01917E+00  1.01173E+00  7.44228E-03
    5539.285     39.230   3.700  1.00840E+00  1.00982E+00 -1.42967E-03
    5540.704     40.649   3.750  9.97210E-01  1.00792E+00 -1.07552E-02
    5542.142     42.087   3.800  9.86692E-01  1.00601E+00 -1.94412E-02
    5543.600     43.544   3.850  9.78202E-01  1.00427E+00 -2.62676E-02
    5545.076     45.021   3.900  9.72110E-01  1.00253E+00 -3.06898E-02
    5546.572     46.516   3.950  9.68743E-01  1.00079E+00 -3.23697E-02
    5548.086     48.031   4.000  9.68103E-01  9.99050E-01 -3.12966E-02
    5549.620     49.564   4.050  9.70762E-01  9.97907E-01 -2.74596E-02
    5551.172     51.117   4.100  9.75458E-01  9.96764E-01 -2.15599E-02
    5552.744     52.688   4.150  9.81597E-01  9.95621E-01 -1.41953E-02
    5554.334     54.279   4.200  9.88557E-01  9.94478E-01 -5.99471E-03
    5555.944     55.889   4.250  9.96541E-01  9.93960E-01  2.61134E-03
    5557.573     57.518   4.300  1.00413E+00  9.93443E-01  1.08153E-02
    5559.221     59.165   4.350  1.01086E+00  9.92926E-01  1.81298E-02
    5560.888     60.832   4.400  1.01632E+00  9.92409E-01  2.41684E-02
    5562.574     62.518   4.450  1.02069E+00  9.92419E-01  2.85519E-02
    5564.278     64.223   4.500  1.02318E+00  9.92428E-01  3.10287E-02
    5566.002     65.947   4.550  1.02371E+00  9.92437E-01  3.15192E-02
    5567.746     67.690   4.600  1.02227E+00  9.92446E-01  3.00338E-02
    5569.508     69.452   4.650  1.01902E+00  9.92653E-01  2.65364E-02
    5571.289     71.234   4.700  1.01405E+00  9.92860E-01  2.13115E-02
    5573.089     73.034   4.750  1.00756E+00  9.93066E-01  1.45656E-02
    5574.908     74.853   4.800  9.99778E-01  9.93273E-01  6.53527E-03
    5576.747     76.691   4.850  9.90841E-01  9.93344E-01 -2.51493E-03
    5578.604     78.549   4.900  9.81366E-01  9.93416E-01 -1.21016E-02
    5580.480     80.425   4.950  9.71866E-01  9.93487E-01 -2.17115E-02
    5582.376     82.321   5.000  9.63021E-01  9.93558E-01 -3.06596E-02
    5584.290     84.235   5.050  9.55395E-01  9.93216E-01 -3.79911E-02
    5586.224     86.169   5.100  9.50252E-01  9.92874E-01 -4.28325E-02
    5588.177     88.121   5.150  9.48516E-01  9.92532E-01 -4.42542E-02
    5590.148     90.093   5.200  9.50907E-01  9.92190E-01 -4.15248E-02
    5592.139     92.084   5.250  9.57344E-01  9.91314E-01 -3.41965E-02
    5594.149     94.093   5.300  9.67882E-01  9.90438E-01 -2.27241E-02
    5596.178     96.122   5.350  9.81587E-01  9.89561E-01 -8.04058E-03
    5598.225     98.170   5.400  9.96932E-01  9.88685E-01  8.32149E-03
    5600.292    100.237   5.450  1.01147E+00  9.87396E-01  2.43062E-02
    5602.378    102.323   5.500  1.02358E+00  9.86108E-01  3.78653E-02
    5604.483    104.428   5.550  1.03154E+00  9.84819E-01  4.72474E-02
    5606.607    106.552   5.600  1.03423E+00  9.83530E-01  5.13036E-02
    5608.751    108.695   5.650  1.03095E+00  9.82081E-01  4.95197E-02
    5610.913    110.857   5.700  1.02265E+00  9.80632E-01  4.26372E-02
    5613.094    113.039   5.750  1.01065E+00  9.79184E-01  3.19829E-02
    5615.294    115.239   5.800  9.96697E-01  9.77735E-01  1.93012E-02
    5617.513    117.458   5.850  9.82702E-01  9.76436E-01  6.38150E-03
    5619.752    119.697   5.900  9.70031E-01  9.75137E-01 -5.20207E-03
    5622.009    121.954   5.950  9.59490E-01  9.73837E-01 -1.46240E-02
    5624.286    124.230   6.000  9.51246E-01  9.72538E-01 -2.17120E-02
    5626.581    126.526   6.050  9.45606E-01  9.71769E-01 -2.66863E-02
    5628.896    128.840   6.100  9.41351E-01  9.71000E-01 -3.02501E-02
    5631.229    131.174   6.150  9.37963E-01  9.70230E-01 -3.29304E-02
    5633.582    133.527   6.200  9.35301E-01  9.69461E-01 -3.48711E-02
    5635.954    135.898   6.250  9.33719E-01  9.68692E-01 -3.57102E-02
    5638.345    138.289   6.300  9.33991E-01  9.67923E-01 -3.46565E-02
    5640.754    140.699   6.350  9.37053E-01  9.67154E-01 -3.07508E-02
    5643.183    143.128   6.400  9.43643E-01  9.66385E-01 -2.32388E-02
    5645.631    145.576   6.450  9.53929E-01  9.65616E-01 -1.19448E-02
    5648.098    148.043   6.500  9.67266E-01  9.64847E-01  2.47367E-03
    5650.584    150.529   6.550  9.82271E-01  9.64116E-01  1.85772E-02
    5653.089    153.034   6.600  9.96515E-01  9.63386E-01  3.39301E-02
    5655.613    155.558   6.650  1.00755E+00  9.62656E-01  4.60214E-02
    5658.156    158.101   6.700  1.01325E+00  9.61926E-01  5.26594E-02
    5660.719    160.663   6.750  1.01231E+00  9.61196E-01  5.24934E-02
    5663.300    163.245   6.800  1.00460E+00  9.60466E-01  4.53665E-02
    5665.900    165.845   6.850  9.91229E-01  9.59736E-01  3.23983E-02
    5668.520    168.464   6.900  9.74320E-01  9.59006E-01  1.57688E-02
    5671.158    171.103   6.950  9.56580E-01  9.58275E-01 -1.74710E-03
    5673.816    173.760   7.000  9.40697E-01  9.57545E-01 -1.73788E-02
    5676.492    176.437   7.050  9.28166E-01  9.56235E-01 -2.90029E-02
    5679.188    179.132   7.100  9.20778E-01  9.54925E-01 -3.53442E-02
    5681.902    181.847   7.150  9.18516E-01  9.53614E-01 -3.63923E-02
    5684.636    184.581   7.200  9.20376E-01  9.52304E-01 -3.31623E-02
    5687.389    187.333   7.250  9.24751E-01  9.50993E-01 -2.73050E-02
    5690.160    190.105   7.300  9.29925E-01  9.49683E-01 -2.05938E-02
    5692.951    192.896   7.350  9.34547E-01  9.48373E-01 -1.44357E-02
    5695.761    195.706   7.400  9.37941E-01  9.47062E-01 -9.54062E-03
    5698.590    198.535   7.450  9.40183E-01  9.45752E-01 -5.83494E-03
    5701.438    201.383   7.500  9.41937E-01  9.44442E-01 -2.62855E-03
    5704.305    204.250   7.550  9.43859E-01  9.42824E-01  1.08784E-03
    5707.191    207.136   7.600  9.46942E-01  9.41207E-01  6.04072E-03
    5710.096    210.041   7.650  9.51375E-01  9.39590E-01  1.24345E-02
    5713.020    212.965   7.700  9.56649E-01  9.37973E-01  1.97390E-02
    5715.963    215.908   7.750  9.61620E-01  9.36356E-01  2.67497E-02
    5718.926    218.870   7.800  9.64793E-01  9.34738E-01  3.18766E-02
    5721.907    221.852   7.850  9.64726E-01  9.33121E-01  3.35800E-02
    5724.907    224.852   7.900  9.60468E-01  9.31504E-01  3.08277E-02
    5727.927    227.871   7.950  9.51872E-01  9.29887E-01  2.34408E-02
    5730.965    230.910   8.000  9.39717E-01  9.28270E-01  1.22271E-02
    5734.023    233.967   8.050  9.25892E-01  9.27001E-01 -1.18657E-03
    5737.099    237.044   8.100  9.12157E-01  9.25733E-01 -1.45397E-02
    5740.195    240.140   8.150  9.00598E-01  9.24464E-01 -2.55974E-02
    5743.310    243.254   8.200  8.92847E-01  9.23196E-01 -3.25950E-02
    5746.443    246.388   8.250  8.89745E-01  9.21927E-01 -3.46120E-02
    5749.596    249.541   8.300  8.91197E-01  9.20658E-01 -3.17301E-02
    5752.768    252.713   8.350  8.96259E-01  9.19390E-01 -2.49462E-02
    5755.959    255.903   8.400  9.03424E-01  9.18121E-01 -1.58733E-02
    5759.169    259.113   8.450  9.11010E-01  9.16853E-01 -6.31951E-03
    5762.398    262.342   8.500  9.17557E-01  9.15584E-01  2.13695E-03
    5765.646    265.590   8.550  9.22072E-01  9.14214E-01  8.52618E-03
    5768.913    268.857   8.600  9.24311E-01  9.12843E-01  1.24654E-02
    5772.199    272.144   8.650  9.24533E-01  9.11472E-01  1.42224E-02
    5775.504    275.449   8.700  9.23370E-01  9.10101E-01  1.44743E-02
    5778.828    278.773   8.750  9.21546E-01  9.08731E-01  1.40058E-02
    5782.171    282.116   8.800  9.19620E-01  9.07360E-01  1.34230E-02
    5785.534    285.478   8.850  9.17812E-01  9.05989E-01  1.29674E-02
    5788.915    288.860   8.900  9.15976E-01  9.04619E-01  1.24797E-02
    5792.316    292.260   8.950  9.13705E-01  9.03248E-01  1.15121E-02
    5795.735    295.680   9.000  9.10531E-01  9.01877E-01  9.54407E-03
    5799.174    299.118   9.050  9.05809E-01  9.00184E-01  6.21717E-03
    5802.631    302.576   9.100  8.99846E-01  8.98490E-01  1.50111E-03
    5806.108    306.052   9.150  8.93038E-01  8.96797E-01 -4.17375E-03
    5809.603    309.548   9.200  8.86108E-01  8.95104E-01 -1.00104E-02
    5813.118    313.063   9.250  8.79935E-01  8.93411E-01 -1.50284E-02
    5816.652    316.596   9.300  8.75336E-01  8.91717E-01 -1.83094E-02
    5820.205    320.149   9.350  8.72855E-01  8.90024E-01 -1.92331E-02
    5823.777    323.721   9.400  8.72626E-01  8.88331E-01 -1.76331E-02
    5827.367    327.312   9.450  8.74346E-01  8.86637E-01 -1.38317E-02
    5830.977    330.922   9.500  8.77366E-01  8.84944E-01 -8.54679E-03
    5834.606    334.551   9.550  8.80950E-01  8.83348E-01 -2.70988E-03
    5838.254    338.199   9.600  8.84247E-01  8.81751E-01  2.82578E-03
    5841.922    341.866   9.650  8.86643E-01  8.80155E-01  7.36146E-03
    5845.608    345.552   9.700  8.87810E-01  8.78559E-01  1.05190E-02
    5849.313    349.258   9.750  8.87718E-01  8.76963E-01  1.22535E-02
    5853.037    352.982   9.800  8.86552E-01  8.75366E-01  1.27702E-02
    5856.780    356.725   9.850  8.84595E-01  8.73770E-01  1.23840E-02
    5860.543    360.488   9.900  8.82098E-01  8.72174E-01  1.13759E-02
    5864.324    364.269   9.950  8.79191E-01  8.70578E-01  9.89438E-03
    5868.125    368.069  10.000  8.75876E-01  8.68981E-01  7.93572E-03
