# # Once                                                         FEFF 9.6.4  
# # POT  SCF  30  6.0000   0, core-hole, AFOLP (folp(0)= 1.150)
# # Abs   Z=27 Rmt= 1.384 Rnm= 1.441 K  shell
# # Pot 1 Z=62 Rmt= 1.686 Rnm= 1.742
# # Pot 2 Z=27 Rmt= 1.392 Rnm= 1.451
# # Gam_ch=1.436E+00 H-L exch Vi= 0.000E+00 Vr= 0.000E+00
# # Mu=-1.601E+01 kf=1.935E+00 Vint=-2.333E+01 Rs_int= 1.875
# # PATH  Rmax= 6.000,  Keep_limit= 0.00, Heap_limit 0.00  Pwcrit= 2.50%
#  S02=1.000  Temp=   0.00  Debye_temp=   0.00  Global_sig2= 0.00000
#  Energy zero shift, vr, vi    0.00000E+00   0.00000E+00
#  Curved wave amplitude ratio filter   4.000%
#     file         sig2 tot  cw amp ratio   deg  nlegs   reff  inp sig2
#           1       0.00000    100.00      4.00     2   2.4710
#           2       0.00000     93.11      4.00     2   2.5595
#           3       0.00000     80.10      4.00     2   3.2591
#           4       0.00000     14.82      2.00     2   4.2500
#           5       0.00000     29.12      4.00     2   4.2799
#           6       0.00000     56.48      8.00     2   4.3316
#           7       0.00000     33.90      4.00     2   4.7784
#           8       0.00000     40.54      8.00     2   4.9161
#           9       0.00000     29.98      6.00     2   4.9420
#          10       0.00000     28.83      8.00     2   5.5654
#    10/  10 paths used
#  xsedge+50, used to normalize mu           2.9063E-04
#  -----------------------------------------------------------------------
#  omega    e    k    mu    mu0     chi     @#
    7717.843    -16.005   0.000  4.67365E-01  2.97620E-01  3.32074E-01
    7717.853    -15.996   0.050  4.70788E-01  3.02420E-01  3.28573E-01
    7717.881    -15.967   0.100  4.74185E-01  3.07221E-01  3.25041E-01
    7717.929    -15.920   0.150  4.84577E-01  3.21523E-01  3.15106E-01
    7717.995    -15.853   0.200  4.94765E-01  3.35825E-01  3.04925E-01
    7718.081    -15.767   0.250  5.10960E-01  3.58112E-01  2.89795E-01
    7718.186    -15.663   0.300  5.26659E-01  3.80400E-01  2.74085E-01
    7718.310    -15.539   0.350  5.44490E-01  4.06373E-01  2.54761E-01
    7718.453    -15.396   0.400  5.61412E-01  4.32347E-01  2.34382E-01
    7718.615    -15.234   0.450  5.74954E-01  4.57470E-01  2.09304E-01
    7718.796    -15.053   0.500  5.86960E-01  4.82592E-01  1.82474E-01
    7718.996    -14.853   0.550  5.91459E-01  5.05222E-01  1.47535E-01
    7719.215    -14.634   0.600  5.93545E-01  5.27853E-01  1.10024E-01
    7719.453    -14.396   0.650  5.85421E-01  5.48456E-01  6.04751E-02
    7719.710    -14.139   0.700  5.73892E-01  5.69060E-01  7.72681E-03
    7719.986    -13.862   0.750  5.49960E-01  5.88419E-01 -6.00168E-02
    7720.281    -13.567   0.800  5.22185E-01  6.07778E-01 -1.30433E-01
    7720.596    -13.253   0.850  4.81726E-01  6.26410E-01 -2.15144E-01
    7720.929    -12.919   0.900  4.39220E-01  6.45042E-01 -2.98824E-01
    7721.282    -12.567   0.950  3.88395E-01  6.63128E-01 -3.89410E-01
    7721.653    -12.195   1.000  3.41340E-01  6.81215E-01 -4.70577E-01
    7722.044    -11.805   1.050  2.96679E-01  6.98706E-01 -5.44036E-01
    7722.453    -11.395   1.100  2.65102E-01  7.16198E-01 -5.96930E-01
    7722.882    -10.967   1.150  2.48624E-01  7.32935E-01 -6.27343E-01
    7723.329    -10.519   1.200  2.53411E-01  7.49673E-01 -6.29524E-01
    7723.796    -10.052   1.250  2.80810E-01  7.65427E-01 -6.02909E-01
    7724.282     -9.567   1.300  3.31053E-01  7.81181E-01 -5.49418E-01
    7724.787     -9.062   1.350  4.02095E-01  7.95732E-01 -4.72227E-01
    7725.311     -8.538   1.400  4.89160E-01  8.10284E-01 -3.78741E-01
    7725.854     -7.995   1.450  5.87444E-01  8.23438E-01 -2.74192E-01
    7726.416     -7.433   1.500  6.89287E-01  8.36593E-01 -1.68638E-01
    7726.997     -6.852   1.550  7.89479E-01  8.48213E-01 -6.63921E-02
    7727.597     -6.252   1.600  8.80037E-01  8.59833E-01  2.25535E-02
    7728.216     -5.633   1.650  9.57403E-01  8.69830E-01  9.67529E-02
    7728.854     -4.995   1.700  1.01595E+00  8.79827E-01  1.48854E-01
    7729.511     -4.337   1.750  1.05479E+00  8.88159E-01  1.80743E-01
    7730.187     -3.661   1.800  1.07285E+00  8.96491E-01  1.89750E-01
    7730.883     -2.966   1.850  1.07176E+00  9.03185E-01  1.80262E-01
    7731.597     -2.251   1.900  1.05581E+00  9.09879E-01  1.55104E-01
    7732.331     -1.518   1.950  1.02892E+00  9.14905E-01  1.20672E-01
    7733.083     -0.766   2.000  9.98701E-01  9.19931E-01  8.30183E-02
    7733.855      0.006   2.050  9.67683E-01  9.22615E-01  4.74372E-02
    7734.645      0.797   2.100  9.42842E-01  9.25299E-01  1.84421E-02
    7735.455      1.606   2.150  9.27333E-01  9.27983E-01 -6.81961E-04
    7736.283      2.435   2.200  9.22038E-01  9.30667E-01 -9.04726E-03
    7737.131      3.283   2.250  9.26706E-01  9.34675E-01 -8.35996E-03
    7737.998      4.149   2.300  9.38098E-01  9.38682E-01 -6.13539E-04
    7738.884      5.035   2.350  9.52018E-01  9.42690E-01  9.79719E-03
    7739.789      5.940   2.400  9.64815E-01  9.46697E-01  1.90379E-02
    7740.713      6.864   2.450  9.75946E-01  9.51229E-01  2.59117E-02
    7741.655      7.807   2.500  9.84138E-01  9.55760E-01  2.96777E-02
    7742.617      8.769   2.550  9.89413E-01  9.60291E-01  3.03831E-02
    7743.599      9.750   2.600  9.92381E-01  9.64822E-01  2.86842E-02
    7744.599     10.750   2.650  9.90869E-01  9.67209E-01  2.45687E-02
    7745.618     11.769   2.700  9.88344E-01  9.69597E-01  1.94215E-02
    7746.656     12.808   2.750  9.85644E-01  9.71984E-01  1.41191E-02
    7747.713     13.865   2.800  9.83397E-01  9.74371E-01  9.30767E-03
    7748.790     14.941   2.850  9.78403E-01  9.76091E-01  2.37859E-03
    7749.885     16.036   2.900  9.74748E-01  9.77811E-01 -3.14354E-03
    7750.999     17.151   2.950  9.72867E-01  9.79531E-01 -6.82368E-03
    7752.133     18.284   3.000  9.72851E-01  9.81250E-01 -8.58134E-03
    7753.285     19.437   3.050  9.71218E-01  9.82136E-01 -1.11319E-02
    7754.457     20.608   3.100  9.71821E-01  9.83022E-01 -1.13969E-02
    7755.648     21.799   3.150  9.74763E-01  9.83908E-01 -9.28582E-03
    7756.857     23.009   3.200  9.79903E-01  9.84794E-01 -4.95597E-03
    7758.086     24.237   3.250  9.85587E-01  9.85633E-01 -4.63968E-05
    7759.334     25.485   3.300  9.93206E-01  9.86471E-01  6.80309E-03
    7760.601     26.752   3.350  1.00228E+00  9.87310E-01  1.50998E-02
    7761.886     28.038   3.400  1.01203E+00  9.88148E-01  2.40549E-02
    7763.191     29.343   3.450  1.02094E+00  9.88761E-01  3.23547E-02
    7764.515     30.667   3.500  1.02898E+00  9.89373E-01  3.97619E-02
    7765.858     32.010   3.550  1.03497E+00  9.89986E-01  4.50866E-02
    7767.220     33.372   3.600  1.03775E+00  9.90599E-01  4.71790E-02
    7768.602     34.753   3.650  1.03680E+00  9.91438E-01  4.53228E-02
    7770.002     36.153   3.700  1.03161E+00  9.92278E-01  3.92443E-02
    7771.421     37.572   3.750  1.02219E+00  9.93118E-01  2.89651E-02
    7772.859     39.011   3.800  1.00918E+00  9.93958E-01  1.51476E-02
    7774.317     40.468   3.850  9.94378E-01  9.94721E-01 -3.39992E-04
    7775.793     41.944   3.900  9.78983E-01  9.95483E-01 -1.63658E-02
    7777.288     43.440   3.950  9.64753E-01  9.96246E-01 -3.11895E-02
    7778.803     44.954   4.000  9.53348E-01  9.97009E-01 -4.31726E-02
    7780.336     46.488   4.050  9.46024E-01  9.97861E-01 -5.11886E-02
    7781.889     48.040   4.100  9.43021E-01  9.98713E-01 -5.49228E-02
    7783.461     49.612   4.150  9.44103E-01  9.99565E-01 -5.46227E-02
    7785.051     51.203   4.200  9.48259E-01  1.00042E+00 -5.13010E-02
    7786.661     52.812   4.250  9.53646E-01  1.00127E+00 -4.67857E-02
    7788.290     54.441   4.300  9.58828E-01  1.00212E+00 -4.24816E-02
    7789.938     56.089   4.350  9.62252E-01  1.00296E+00 -3.99100E-02
    7791.604     57.756   4.400  9.62957E-01  1.00381E+00 -4.00078E-02
    7793.290     59.442   4.450  9.61163E-01  1.00459E+00 -4.24878E-02
    7794.995     61.147   4.500  9.57851E-01  1.00536E+00 -4.64485E-02
    7796.719     62.871   4.550  9.54984E-01  1.00613E+00 -4.99683E-02
    7798.462     64.614   4.600  9.55150E-01  1.00691E+00 -5.05226E-02
    7800.224     66.376   4.650  9.60905E-01  1.00722E+00 -4.51858E-02
    7802.006     68.157   4.700  9.74434E-01  1.00753E+00 -3.22747E-02
    7803.806     69.957   4.750  9.96669E-01  1.00784E+00 -1.08913E-02
    7805.625     71.777   4.800  1.02700E+00  1.00816E+00  1.83555E-02
    7807.463     73.615   4.850  1.06297E+00  1.00828E+00  5.32614E-02
    7809.321     75.472   4.900  1.10071E+00  1.00841E+00  8.98898E-02
    7811.197     77.349   4.950  1.13539E+00  1.00854E+00  1.23528E-01
    7813.093     79.244   5.000  1.16196E+00  1.00867E+00  1.49267E-01
    7815.007     81.159   5.050  1.17554E+00  1.00854E+00  1.62667E-01
    7816.941     83.092   5.100  1.17367E+00  1.00841E+00  1.61017E-01
    7818.893     85.045   5.150  1.15559E+00  1.00828E+00  1.43571E-01
    7820.865     87.016   5.200  1.12285E+00  1.00815E+00  1.11823E-01
    7822.856     89.007   5.250  1.07827E+00  1.00755E+00  6.89777E-02
    7824.866     91.017   5.300  1.02808E+00  1.00695E+00  2.06211E-02
    7826.894     93.046   5.350  9.78208E-01  1.00635E+00 -2.74832E-02
    7828.942     95.094   5.400  9.34206E-01  1.00575E+00 -6.98991E-02
    7831.009     97.161   5.450  9.00414E-01  1.00506E+00 -1.02317E-01
    7833.095     99.247   5.500  8.79444E-01  1.00436E+00 -1.22240E-01
    7835.200    101.352   5.550  8.71620E-01  1.00367E+00 -1.29321E-01
    7837.324    103.476   5.600  8.75331E-01  1.00297E+00 -1.25109E-01
    7839.467    105.619   5.650  8.87621E-01  1.00213E+00 -1.12350E-01
    7841.629    107.781   5.700  9.04664E-01  1.00129E+00 -9.48986E-02
    7843.811    109.962   5.750  9.22861E-01  1.00045E+00 -7.62769E-02
    7846.011    112.162   5.800  9.39443E-01  9.99613E-01 -5.92092E-02
    7848.230    114.382   5.850  9.52922E-01  9.98636E-01 -4.50318E-02
    7850.469    116.620   5.900  9.63041E-01  9.97660E-01 -3.41385E-02
    7852.726    118.877   5.950  9.70774E-01  9.96683E-01 -2.55768E-02
    7855.003    121.154   6.000  9.77765E-01  9.95707E-01 -1.77304E-02
    7857.298    123.449   6.050  9.86042E-01  9.94814E-01 -8.67756E-03
    7859.613    125.764   6.100  9.96606E-01  9.93921E-01  2.65886E-03
    7861.946    128.098   6.150  1.00992E+00  9.93028E-01  1.67509E-02
    7864.299    130.450   6.200  1.02553E+00  9.92135E-01  3.31499E-02
    7866.671    132.822   6.250  1.04216E+00  9.91242E-01  5.05921E-02
    7869.061    135.213   6.300  1.05799E+00  9.90349E-01  6.72868E-02
    7871.471    137.623   6.350  1.07110E+00  9.89456E-01  8.13010E-02
    7873.900    140.051   6.400  1.07979E+00  9.88563E-01  9.09421E-02
    7876.348    142.499   6.450  1.08291E+00  9.87670E-01  9.50506E-02
    7878.815    144.966   6.500  1.08001E+00  9.86777E-01  9.31518E-02
    7881.301    147.452   6.550  1.07099E+00  9.86003E-01  8.50038E-02
    7883.806    149.957   6.600  1.05700E+00  9.85229E-01  7.18622E-02
    7886.330    152.482   6.650  1.03926E+00  9.84455E-01  5.49287E-02
    7888.873    155.025   6.700  1.01907E+00  9.83681E-01  3.55102E-02
    7891.435    157.587   6.750  9.97697E-01  9.82907E-01  1.48557E-02
    7894.017    160.168   6.800  9.76244E-01  9.82133E-01 -5.92195E-03
    7896.617    162.769   6.850  9.55686E-01  9.81360E-01 -2.58444E-02
    7899.236    165.388   6.900  9.36906E-01  9.80586E-01 -4.40177E-02
    7901.875    168.026   6.950  9.20755E-01  9.79812E-01 -5.95781E-02
    7904.532    170.684   7.000  9.08065E-01  9.79038E-01 -7.16767E-02
    7907.209    173.360   7.050  8.99715E-01  9.78231E-01 -7.93907E-02
    7909.904    176.056   7.100  8.96268E-01  9.77424E-01 -8.21603E-02
    7912.619    178.770   7.150  8.97973E-01  9.76617E-01 -7.97147E-02
    7915.353    181.504   7.200  9.04639E-01  9.75810E-01 -7.22277E-02
    7918.105    184.257   7.250  9.15570E-01  9.75003E-01 -6.03894E-02
    7920.877    187.029   7.300  9.29589E-01  9.74195E-01 -4.53804E-02
    7923.668    189.819   7.350  9.45174E-01  9.73388E-01 -2.87388E-02
    7926.478    192.629   7.400  9.60680E-01  9.72581E-01 -1.21369E-02
    7929.307    195.458   7.450  9.74600E-01  9.71774E-01  2.88545E-03
    7932.155    198.306   7.500  9.85807E-01  9.70967E-01  1.51713E-02
    7935.022    201.173   7.550  9.93566E-01  9.69998E-01  2.41285E-02
    7937.908    204.059   7.600  9.97966E-01  9.69029E-01  2.96679E-02
    7940.813    206.964   7.650  9.99573E-01  9.68060E-01  3.23552E-02
    7943.737    209.888   7.700  9.99307E-01  9.67091E-01  3.31253E-02
    7946.680    212.832   7.750  9.98197E-01  9.66122E-01  3.30278E-02
    7949.643    215.794   7.800  9.97124E-01  9.65153E-01  3.29680E-02
    7952.624    218.775   7.850  9.96630E-01  9.64184E-01  3.35054E-02
    7955.624    221.776   7.900  9.96821E-01  9.63215E-01  3.47533E-02
    7958.644    224.795   7.950  9.97389E-01  9.62246E-01  3.63959E-02
    7961.682    227.834   8.000  9.97730E-01  9.61277E-01  3.78070E-02
    7964.740    230.891   8.050  9.96921E-01  9.60147E-01  3.81966E-02
    7967.816    233.968   8.100  9.94565E-01  9.59017E-01  3.69782E-02
    7970.912    237.063   8.150  9.90199E-01  9.57886E-01  3.36617E-02
    7974.026    240.178   8.200  9.83617E-01  9.56756E-01  2.80242E-02
    7977.160    243.312   8.250  9.74876E-01  9.55625E-01  2.01142E-02
    7980.313    246.464   8.300  9.64245E-01  9.54495E-01  1.02023E-02
    7983.485    249.636   8.350  9.52132E-01  9.53364E-01 -1.29149E-03
    7986.676    252.827   8.400  9.39031E-01  9.52234E-01 -1.38556E-02
    7989.885    256.037   8.450  9.25501E-01  9.51103E-01 -2.69087E-02
    7993.114    259.266   8.500  9.12182E-01  9.49973E-01 -3.97788E-02
    7996.362    262.514   8.550  8.99880E-01  9.48922E-01 -5.16841E-02
    7999.630    265.781   8.600  8.89408E-01  9.47872E-01 -6.16874E-02
    8002.916    269.067   8.650  8.81845E-01  9.46821E-01 -6.86415E-02
    8006.221    272.372   8.700  8.78326E-01  9.45771E-01 -7.13342E-02
    8009.545    275.696   8.750  8.79860E-01  9.44721E-01 -6.86834E-02
    8012.888    279.040   8.800  8.87083E-01  9.43670E-01 -5.99946E-02
    8016.251    282.402   8.850  9.00017E-01  9.42620E-01 -4.52225E-02
    8019.632    285.783   8.900  9.17890E-01  9.41569E-01 -2.51662E-02
    8023.032    289.184   8.950  9.39083E-01  9.40519E-01 -1.52726E-03
    8026.452    292.603   9.000  9.61257E-01  9.39468E-01  2.32136E-02
    8029.890    296.042   9.050  9.81783E-01  9.38495E-01  4.61615E-02
    8033.348    299.499   9.100  9.97829E-01  9.37521E-01  6.43697E-02
    8036.824    302.976   9.150  1.00709E+00  9.36547E-01  7.53654E-02
    8040.320    306.472   9.200  1.00820E+00  9.35574E-01  7.76627E-02
    8043.835    309.986   9.250  1.00102E+00  9.34600E-01  7.10940E-02
    8047.369    313.520   9.300  9.86737E-01  9.33626E-01  5.68994E-02
    8050.921    317.073   9.350  9.67660E-01  9.32653E-01  3.75395E-02
    8054.493    320.645   9.400  9.46824E-01  9.31679E-01  1.62560E-02
    8058.084    324.236   9.450  9.27414E-01  9.30706E-01 -3.53621E-03
    8061.694    327.846   9.500  9.12157E-01  9.29732E-01 -1.88989E-02
    8065.323    331.475   9.550  9.02848E-01  9.28789E-01 -2.79209E-02
    8068.971    335.123   9.600  8.99957E-01  9.27845E-01 -3.00445E-02
    8072.638    338.790   9.650  9.02671E-01  9.26902E-01 -2.61291E-02
    8076.324    342.476   9.700  9.09087E-01  9.25959E-01 -1.82104E-02
    8080.030    346.181   9.750  9.16684E-01  9.25015E-01 -9.00041E-03
    8083.754    349.905   9.800  9.22913E-01  9.24072E-01 -1.25293E-03
    8087.497    353.649   9.850  9.25774E-01  9.23129E-01  2.86271E-03
    8091.260    357.411   9.900  9.24250E-01  9.22186E-01  2.23656E-03
    8095.041    361.192   9.950  9.18510E-01  9.21242E-01 -2.96257E-03
    8098.841    364.993  10.000  9.09825E-01  9.20299E-01 -1.13684E-02
    8102.661    368.812  10.050  8.99902E-01  9.19170E-01 -2.09370E-02
    8106.500    372.651  10.100  8.91328E-01  9.18041E-01 -2.90608E-02
    8110.357    376.509  10.150  8.86191E-01  9.16912E-01 -3.34603E-02
    8114.234    380.385  10.200  8.85831E-01  9.15783E-01 -3.26608E-02
    8118.130    384.281  10.250  8.90536E-01  9.14654E-01 -2.63302E-02
    8122.044    388.196  10.300  8.99481E-01  9.13525E-01 -1.53495E-02
    8125.978    392.130  10.350  9.10930E-01  9.12396E-01 -1.60442E-03
    8129.931    396.082  10.400  9.22625E-01  9.11267E-01  1.24431E-02
    8133.903    400.054  10.450  9.32294E-01  9.10138E-01  2.43004E-02
    8137.894    404.045  10.500  9.38129E-01  9.09009E-01  3.19771E-02
    8141.904    408.055  10.550  9.39158E-01  9.07880E-01  3.43864E-02
    8145.933    412.084  10.600  9.35397E-01  9.06752E-01  3.15298E-02
    8149.981    416.132  10.650  9.27796E-01  9.05623E-01  2.44352E-02
    8154.048    420.200  10.700  9.17976E-01  9.04494E-01  1.48758E-02
    8158.134    424.286  10.750  9.07843E-01  9.03365E-01  4.94674E-03
    8162.240    428.391  10.800  8.99163E-01  9.02236E-01 -3.39801E-03
    8166.364    432.515  10.850  8.93213E-01  9.01107E-01 -8.74037E-03
    8170.507    436.659  10.900  8.90557E-01  8.99978E-01 -1.04437E-02
    8174.670    440.821  10.950  8.91004E-01  8.98849E-01 -8.70656E-03
    8178.851    445.003  11.000  8.93733E-01  8.97720E-01 -4.43016E-03
    8183.052    449.203  11.050  8.97384E-01  8.96521E-01  9.60638E-04
    8187.271    453.423  11.100  9.00859E-01  8.95322E-01  6.16824E-03
    8191.510    457.661  11.150  9.03066E-01  8.94123E-01  9.97576E-03
    8195.767    461.919  11.200  9.03294E-01  8.92925E-01  1.15822E-02
    8200.044    466.196  11.250  9.01302E-01  8.91726E-01  1.07103E-02
    8204.340    470.491  11.300  8.97301E-01  8.90527E-01  7.58593E-03
    8208.655    474.806  11.350  8.91837E-01  8.89328E-01  2.81296E-03
    8212.989    479.140  11.400  8.85627E-01  8.88129E-01 -2.81009E-03
    8217.342    483.493  11.450  8.79390E-01  8.86930E-01 -8.47751E-03
    8221.713    487.865  11.500  8.73721E-01  8.85732E-01 -1.35216E-02
    8226.104    492.256  11.550  8.69019E-01  8.84533E-01 -1.74875E-02
    8230.515    496.666  11.600  8.65496E-01  8.83334E-01 -2.01345E-02
    8234.944    501.095  11.650  8.63217E-01  8.82135E-01 -2.13811E-02
    8239.392    505.543  11.700  8.62180E-01  8.80936E-01 -2.12267E-02
    8243.859    510.010  11.750  8.62367E-01  8.79737E-01 -1.96847E-02
    8248.345    514.497  11.800  8.63775E-01  8.78539E-01 -1.67527E-02
    8252.851    519.002  11.850  8.66398E-01  8.77340E-01 -1.24315E-02
    8257.375    523.526  11.900  8.70179E-01  8.76141E-01 -6.78351E-03
    8261.918    528.070  11.950  8.74936E-01  8.74942E-01 -6.98323E-06
    8266.481    532.632  12.000  8.80321E-01  8.73743E-01  7.50374E-03
    8271.062    537.214  12.050  8.85807E-01  8.72490E-01  1.52129E-02
    8275.663    541.814  12.100  8.90671E-01  8.71237E-01  2.22328E-02
    8280.282    546.434  12.150  8.94163E-01  8.69984E-01  2.77009E-02
    8284.921    551.073  12.200  8.95606E-01  8.68730E-01  3.08348E-02
    8289.579    555.730  12.250  8.94529E-01  8.67477E-01  3.10821E-02
    8294.256    560.407  12.300  8.90770E-01  8.66224E-01  2.82428E-02
    8298.951    565.103  12.350  8.84524E-01  8.64970E-01  2.25318E-02
    8303.666    569.818  12.400  8.76339E-01  8.63717E-01  1.45653E-02
    8308.400    574.552  12.450  8.67025E-01  8.62464E-01  5.27134E-03
    8313.153    579.305  12.500  8.57532E-01  8.61210E-01 -4.25703E-03
    8317.925    584.077  12.550  8.48797E-01  8.59957E-01 -1.29350E-02
    8322.716    588.868  12.600  8.41602E-01  8.58704E-01 -1.98500E-02
    8327.526    593.678  12.650  8.36473E-01  8.57451E-01 -2.43836E-02
    8332.355    598.507  12.700  8.33628E-01  8.56197E-01 -2.62725E-02
    8337.204    603.355  12.750  8.32983E-01  8.54944E-01 -2.56019E-02
    8342.071    608.222  12.800  8.34210E-01  8.53691E-01 -2.27428E-02
    8346.957    613.109  12.850  8.36826E-01  8.52437E-01 -1.82532E-02
    8351.863    618.014  12.900  8.40278E-01  8.51184E-01 -1.27701E-02
    8356.787    622.938  12.950  8.44034E-01  8.49931E-01 -6.91448E-03
