# # Once                                                         FEFF 9.6.4  
# # POT  SCF  30  6.0000   0, core-hole, AFOLP (folp(0)= 1.150)
# # Abs   Z=27 Rmt= 1.401 Rnm= 1.450 K  shell
# # Pot 1 Z=62 Rmt= 1.687 Rnm= 1.742
# # Pot 2 Z=27 Rmt= 1.386 Rnm= 1.441
# # Gam_ch=1.436E+00 H-L exch Vi= 0.000E+00 Vr= 0.000E+00
# # Mu=-1.657E+01 kf=1.954E+00 Vint=-2.392E+01 Rs_int= 1.856
# # PATH  Rmax= 6.000,  Keep_limit= 0.00, Heap_limit 0.00  Pwcrit= 2.50%
#  S02=1.000  Temp=   0.00  Debye_temp=   0.00  Global_sig2= 0.00000
#  Energy zero shift, vr, vi    0.00000E+00   0.00000E+00
#  Curved wave amplitude ratio filter   4.000%
#     file         sig2 tot  cw amp ratio   deg  nlegs   reff  inp sig2
#           1       0.00000    100.00      6.00     2   2.5595
#           2       0.00000     36.32      2.00     2   2.8533
#           3       0.00000     39.97      3.00     2   2.8533
#           4       0.00000     22.45      2.00     2   3.0915
#           5       0.00000     11.04      2.00     2   4.1839
#           6       0.00000     10.61      2.00     2   4.2500
#           7       0.00000     60.64     12.00     2   4.3317
#           8       0.00000     21.46      6.00     2   4.9421
#           9       0.00000     20.39      4.00     2   5.1190
#          10       0.00000     19.51      6.00     2   5.1190
#          11       0.00000     30.95     12.00     2   5.5656
#          12       0.00000      7.66      2.00     2   5.7067
#          13       0.00000      7.21      3.00     2   5.7067
#          14       0.00000      4.52      2.00     2   5.8294
#    14/  14 paths used
#  xsedge+50, used to normalize mu           2.9219E-04
#  -----------------------------------------------------------------------
#  omega    e    k    mu    mu0     chi     @#
    7717.802    -16.571   0.000  3.12128E-01  2.80946E-01  6.56003E-02
    7717.812    -16.561   0.050  3.15842E-01  2.85443E-01  6.37929E-02
    7717.840    -16.532   0.100  3.19561E-01  2.89939E-01  6.20023E-02
    7717.888    -16.485   0.150  3.30787E-01  3.03381E-01  5.69356E-02
    7717.955    -16.418   0.200  3.42043E-01  3.16823E-01  5.20051E-02
    7718.040    -16.332   0.250  3.59767E-01  3.37784E-01  4.47780E-02
    7718.145    -16.228   0.300  3.77561E-01  3.58745E-01  3.78663E-02
    7718.269    -16.104   0.350  3.98568E-01  3.83242E-01  3.03398E-02
    7718.412    -15.961   0.400  4.19629E-01  4.07739E-01  2.31587E-02
    7718.574    -15.799   0.450  4.40150E-01  4.31557E-01  1.64050E-02
    7718.755    -15.618   0.500  4.60529E-01  4.55376E-01  9.64851E-03
    7718.955    -15.418   0.550  4.77581E-01  4.77015E-01  1.03568E-03
    7719.174    -15.199   0.600  4.93830E-01  4.98654E-01 -8.63515E-03
    7719.412    -14.961   0.650  5.04220E-01  5.18564E-01 -2.50475E-02
    7719.669    -14.704   0.700  5.12531E-01  5.38474E-01 -4.42211E-02
    7719.945    -14.427   0.750  5.12360E-01  5.57437E-01 -7.48755E-02
    7720.241    -14.132   0.800  5.08951E-01  5.76401E-01 -1.09245E-01
    7720.555    -13.818   0.850  4.95720E-01  5.94901E-01 -1.56463E-01
    7720.888    -13.484   0.900  4.79835E-01  6.13401E-01 -2.05368E-01
    7721.241    -13.132   0.950  4.56529E-01  6.31629E-01 -2.62306E-01
    7721.612    -12.761   1.000  4.34127E-01  6.49856E-01 -3.15070E-01
    7722.003    -12.370   1.050  4.11126E-01  6.67760E-01 -3.65486E-01
    7722.412    -11.960   1.100  3.94391E-01  6.85665E-01 -4.04745E-01
    7722.841    -11.532   1.150  3.84486E-01  7.03086E-01 -4.32294E-01
    7723.289    -11.084   1.200  3.84699E-01  7.20507E-01 -4.45161E-01
    7723.755    -10.617   1.250  3.95521E-01  7.37196E-01 -4.43059E-01
    7724.241    -10.132   1.300  4.17305E-01  7.53886E-01 -4.27136E-01
    7724.746     -9.627   1.350  4.50224E-01  7.69606E-01 -3.97296E-01
    7725.270     -9.103   1.400  4.93593E-01  7.85326E-01 -3.55864E-01
    7725.813     -8.560   1.450  5.48007E-01  7.99822E-01 -3.01790E-01
    7726.375     -7.998   1.500  6.12072E-01  8.14317E-01 -2.38210E-01
    7726.956     -7.417   1.550  6.86032E-01  8.27381E-01 -1.63964E-01
    7727.556     -6.817   1.600  7.66412E-01  8.40446E-01 -8.45973E-02
    7728.175     -6.198   1.650  8.51193E-01  8.51907E-01 -8.05603E-04
    7728.813     -5.560   1.700  9.34265E-01  8.63368E-01  7.89839E-02
    7729.470     -4.902   1.750  1.01088E+00  8.73118E-01  1.51902E-01
    7730.147     -4.226   1.800  1.07446E+00  8.82867E-01  2.09121E-01
    7730.842     -3.531   1.850  1.11961E+00  8.90832E-01  2.47745E-01
    7731.556     -2.817   1.900  1.14360E+00  8.98796E-01  2.63034E-01
    7732.290     -2.083   1.950  1.14379E+00  9.04847E-01  2.55309E-01
    7733.042     -1.331   2.000  1.12463E+00  9.10897E-01  2.27095E-01
    7733.814     -0.559   2.050  1.08555E+00  9.13716E-01  1.82351E-01
    7734.604      0.231   2.100  1.03852E+00  9.16535E-01  1.29299E-01
    7735.414      1.041   2.150  9.91604E-01  9.19354E-01  7.64887E-02
    7736.243      1.870   2.200  9.51384E-01  9.22172E-01  3.08874E-02
    7737.090      2.717   2.250  9.25634E-01  9.26999E-01 -1.44005E-03
    7737.957      3.584   2.300  9.14169E-01  9.31825E-01 -1.85914E-02
    7738.843      4.470   2.350  9.13623E-01  9.36651E-01 -2.41974E-02
    7739.748      5.375   2.400  9.19297E-01  9.41477E-01 -2.32586E-02
    7740.672      6.299   2.450  9.25539E-01  9.48407E-01 -2.38608E-02
    7741.615      7.242   2.500  9.32394E-01  9.55336E-01 -2.38222E-02
    7742.577      8.204   2.550  9.39304E-01  9.62266E-01 -2.37268E-02
    7743.558      9.185   2.600  9.46291E-01  9.69196E-01 -2.35526E-02
    7744.558     10.185   2.650  9.48716E-01  9.72228E-01 -2.41142E-02
    7745.577     11.204   2.700  9.52622E-01  9.75259E-01 -2.31577E-02
    7746.615     12.242   2.750  9.57997E-01  9.78291E-01 -2.07068E-02
    7747.673     13.300   2.800  9.64652E-01  9.81323E-01 -1.69665E-02
    7748.749     14.376   2.850  9.69350E-01  9.83095E-01 -1.39629E-02
    7749.844     15.471   2.900  9.75308E-01  9.84866E-01 -9.69290E-03
    7750.959     16.586   2.950  9.82224E-01  9.86638E-01 -4.46815E-03
    7752.092     17.719   3.000  9.89653E-01  9.88410E-01  1.25636E-03
    7753.245     18.872   3.050  9.94297E-01  9.88668E-01  5.68074E-03
    7754.416     20.043   3.100  9.99633E-01  9.88926E-01  1.07917E-02
    7755.607     21.234   3.150  1.00544E+00  9.89183E-01  1.63607E-02
    7756.816     22.444   3.200  1.01134E+00  9.89441E-01  2.20167E-02
    7758.045     23.672   3.250  1.01634E+00  9.89547E-01  2.69223E-02
    7759.293     24.920   3.300  1.02141E+00  9.89652E-01  3.18946E-02
    7760.560     26.187   3.350  1.02602E+00  9.89757E-01  3.63906E-02
    7761.846     27.473   3.400  1.02943E+00  9.89863E-01  3.96867E-02
    7763.151     28.778   3.450  1.03143E+00  9.89733E-01  4.17958E-02
    7764.475     30.102   3.500  1.03127E+00  9.89602E-01  4.17384E-02
    7765.818     31.445   3.550  1.02807E+00  9.89472E-01  3.86297E-02
    7767.180     32.807   3.600  1.02111E+00  9.89342E-01  3.17721E-02
    7768.561     34.188   3.650  1.01116E+00  9.89518E-01  2.16379E-02
    7769.961     35.588   3.700  9.97415E-01  9.89694E-01  7.71410E-03
    7771.380     37.007   3.750  9.80511E-01  9.89870E-01 -9.34498E-03
    7772.818     38.446   3.800  9.61774E-01  9.90046E-01 -2.82132E-02
    7774.276     39.903   3.850  9.43272E-01  9.90255E-01 -4.68448E-02
    7775.752     41.379   3.900  9.26770E-01  9.90464E-01 -6.34519E-02
    7777.248     42.875   3.950  9.14424E-01  9.90673E-01 -7.58933E-02
    7778.762     44.389   4.000  9.08057E-01  9.90882E-01 -8.23666E-02
    7780.296     45.923   4.050  9.08894E-01  9.91361E-01 -8.19417E-02
    7781.848     47.475   4.100  9.17020E-01  9.91841E-01 -7.42805E-02
    7783.420     49.047   4.150  9.31525E-01  9.92320E-01 -6.03043E-02
    7785.010     50.638   4.200  9.50438E-01  9.92799E-01 -4.19843E-02
    7786.620     52.247   4.250  9.71676E-01  9.93471E-01 -2.15833E-02
    7788.249     53.876   4.300  9.91632E-01  9.94144E-01 -2.48471E-03
    7789.897     55.524   4.350  1.00751E+00  9.94816E-01  1.25509E-02
    7791.564     57.191   4.400  1.01737E+00  9.95488E-01  2.16174E-02
    7793.249     58.877   4.450  1.02085E+00  9.96255E-01  2.42763E-02
    7794.954     60.582   4.500  1.01835E+00  9.97022E-01  2.10369E-02
    7796.678     62.306   4.550  1.01210E+00  9.97788E-01  1.41058E-02
    7798.422     64.049   4.600  1.00527E+00  9.98555E-01  6.61352E-03
    7800.184     65.811   4.650  1.00088E+00  9.98993E-01  1.85756E-03
    7801.965     67.592   4.700  1.00220E+00  9.99431E-01  2.72417E-03
    7803.765     69.392   4.750  1.01090E+00  9.99868E-01  1.08449E-02
    7805.584     71.211   4.800  1.02690E+00  1.00031E+00  2.61350E-02
    7807.423     73.050   4.850  1.04810E+00  1.00064E+00  4.66253E-02
    7809.280     74.907   4.900  1.07101E+00  1.00097E+00  6.87818E-02
    7811.156     76.784   4.950  1.09114E+00  1.00130E+00  8.81935E-02
    7813.052     78.679   5.000  1.10397E+00  1.00163E+00  1.00438E-01
    7814.966     80.594   5.050  1.10543E+00  1.00173E+00  1.01776E-01
    7816.900     82.527   5.100  1.09409E+00  1.00183E+00  9.05492E-02
    7818.853     84.480   5.150  1.07032E+00  1.00194E+00  6.71240E-02
    7820.824     86.451   5.200  1.03670E+00  1.00204E+00  3.40219E-02
    7822.815     88.442   5.250  9.96781E-01  1.00165E+00 -4.78427E-03
    7824.825     90.452   5.300  9.56849E-01  1.00127E+00 -4.36261E-02
    7826.854     92.481   5.350  9.22216E-01  1.00088E+00 -7.72813E-02
    7828.901     94.529   5.400  8.97176E-01  1.00050E+00 -1.01529E-01
    7830.968     96.595   5.450  8.84262E-01  9.99954E-01 -1.13749E-01
    7833.054     98.681   5.500  8.84066E-01  9.99408E-01 -1.13472E-01
    7835.159    100.786   5.550  8.94960E-01  9.98863E-01 -1.02279E-01
    7837.283    102.911   5.600  9.13785E-01  9.98318E-01 -8.32606E-02
    7839.426    105.054   5.650  9.36652E-01  9.97559E-01 -6.00412E-02
    7841.589    107.216   5.700  9.59564E-01  9.96801E-01 -3.67385E-02
    7843.770    109.397   5.750  9.79454E-01  9.96042E-01 -1.63801E-02
    7845.970    111.597   5.800  9.94571E-01  9.95283E-01 -7.04387E-04
    7848.189    113.817   5.850  1.00442E+00  9.94319E-01  9.99730E-03
    7850.428    116.055   5.900  1.01000E+00  9.93354E-01  1.64879E-02
    7852.685    118.312   5.950  1.01297E+00  9.92390E-01  2.03977E-02
    7854.962    120.589   6.000  1.01510E+00  9.91425E-01  2.34861E-02
    7857.257    122.884   6.050  1.01770E+00  9.90468E-01  2.70510E-02
    7859.572    125.199   6.100  1.02143E+00  9.89510E-01  3.17439E-02
    7861.905    127.533   6.150  1.02602E+00  9.88552E-01  3.73016E-02
    7864.258    129.885   6.200  1.03053E+00  9.87594E-01  4.27949E-02
    7866.630    132.257   6.250  1.03374E+00  9.86637E-01  4.70052E-02
    7869.021    134.648   6.300  1.03458E+00  9.85679E-01  4.88572E-02
    7871.430    137.058   6.350  1.03249E+00  9.84721E-01  4.77754E-02
    7873.859    139.486   6.400  1.02757E+00  9.83763E-01  4.38598E-02
    7876.307    141.934   6.450  1.02055E+00  9.82805E-01  3.78354E-02
    7878.774    144.401   6.500  1.01254E+00  9.81848E-01  3.07978E-02
    7881.260    146.887   6.550  1.00455E+00  9.81017E-01  2.36469E-02
    7883.765    149.392   6.600  9.97460E-01  9.80187E-01  1.73753E-02
    7886.289    151.916   6.650  9.91354E-01  9.79357E-01  1.20826E-02
    7888.832    154.460   6.700  9.85642E-01  9.78527E-01  7.17395E-03
    7891.395    157.022   6.750  9.79238E-01  9.77696E-01  1.55628E-03
    7893.976    159.603   6.800  9.70954E-01  9.76866E-01 -5.97472E-03
    7896.576    162.203   6.850  9.59961E-01  9.76036E-01 -1.62651E-02
    7899.196    164.823   6.900  9.46196E-01  9.75206E-01 -2.93874E-02
    7901.834    167.461   6.950  9.30590E-01  9.74375E-01 -4.44079E-02
    7904.491    170.119   7.000  9.15026E-01  9.73545E-01 -5.94210E-02
    7907.168    172.795   7.050  9.02254E-01  9.72746E-01 -7.16667E-02
    7909.864    175.491   7.100  8.94750E-01  9.71947E-01 -7.85812E-02
    7912.578    178.205   7.150  8.94577E-01  9.71148E-01 -7.80407E-02
    7915.312    180.939   7.200  9.02717E-01  9.70349E-01 -6.90158E-02
    7918.065    183.692   7.250  9.18726E-01  9.69549E-01 -5.19276E-02
    7920.836    186.463   7.300  9.40704E-01  9.68750E-01 -2.86915E-02
    7923.627    189.254   7.350  9.65586E-01  9.67951E-01 -2.42281E-03
    7926.437    192.064   7.400  9.89714E-01  9.67152E-01  2.31384E-02
    7929.266    194.893   7.450  1.00955E+00  9.66353E-01  4.43575E-02
    7932.114    197.741   7.500  1.02238E+00  9.65554E-01  5.84251E-02
    7934.981    200.608   7.550  1.02667E+00  9.64671E-01  6.38327E-02
    7937.867    203.494   7.600  1.02272E+00  9.63788E-01  6.07629E-02
    7940.772    206.399   7.650  1.01226E+00  9.62905E-01  5.09588E-02
    7943.696    209.323   7.700  9.98055E-01  9.62022E-01  3.72562E-02
    7946.639    212.267   7.750  9.83286E-01  9.61139E-01  2.29310E-02
    7949.602    215.229   7.800  9.70848E-01  9.60256E-01  1.09829E-02
    7952.583    218.210   7.850  9.62763E-01  9.59373E-01  3.51935E-03
    7955.583    221.211   7.900  9.59810E-01  9.58490E-01  1.37203E-03
    7958.603    224.230   7.950  9.61466E-01  9.57607E-01  4.01755E-03
    7961.641    227.268   8.000  9.66124E-01  9.56724E-01  9.80224E-03
    7964.699    230.326   8.050  9.71244E-01  9.55583E-01  1.63554E-02
    7967.775    233.402   8.100  9.74788E-01  9.54441E-01  2.12788E-02
    7970.871    236.498   8.150  9.74887E-01  9.53299E-01  2.26087E-02
    7973.986    239.613   8.200  9.70501E-01  9.52157E-01  1.92385E-02
    7977.119    242.746   8.250  9.61578E-01  9.51015E-01  1.10944E-02
    7980.272    245.899   8.300  9.48993E-01  9.49874E-01 -9.26348E-04
    7983.444    249.071   8.350  9.34291E-01  9.48732E-01 -1.52110E-02
    7986.635    252.262   8.400  9.19341E-01  9.47590E-01 -2.97992E-02
    7989.845    255.472   8.450  9.05964E-01  9.46448E-01 -4.27681E-02
    7993.074    258.701   8.500  8.95638E-01  9.45306E-01 -5.25466E-02
    7996.322    261.949   8.550  8.89398E-01  9.44230E-01 -5.80800E-02
    7999.589    265.216   8.600  8.87537E-01  9.43155E-01 -5.89827E-02
    8002.875    268.502   8.650  8.89946E-01  9.42079E-01 -5.53533E-02
    8006.180    271.807   8.700  8.96159E-01  9.41003E-01 -4.76717E-02
    8009.504    275.131   8.750  9.05489E-01  9.39927E-01 -3.66541E-02
    8012.847    278.475   8.800  9.17135E-01  9.38851E-01 -2.31417E-02
    8016.210    281.837   8.850  9.30236E-01  9.37775E-01 -8.04381E-03
    8019.591    285.218   8.900  9.43883E-01  9.36699E-01  7.67359E-03
    8022.992    288.619   8.950  9.57110E-01  9.35623E-01  2.29805E-02
    8026.411    292.038   9.000  9.68907E-01  9.34547E-01  3.67927E-02
    8029.849    295.477   9.050  9.78415E-01  9.33549E-01  4.80904E-02
    8033.307    298.934   9.100  9.84610E-01  9.32550E-01  5.58538E-02
    8036.784    302.411   9.150  9.86805E-01  9.31552E-01  5.93380E-02
    8040.279    305.906   9.200  9.84698E-01  9.30553E-01  5.82034E-02
    8043.794    309.421   9.250  9.78467E-01  9.29554E-01  5.26296E-02
    8047.328    312.955   9.300  9.68800E-01  9.28556E-01  4.33439E-02
    8050.881    316.508   9.350  9.56812E-01  9.27557E-01  3.15394E-02
    8054.452    320.080   9.400  9.43875E-01  9.26558E-01  1.86869E-02
    8058.043    323.671   9.450  9.31370E-01  9.25560E-01  6.27594E-03
    8061.653    327.280   9.500  9.20439E-01  9.24561E-01 -4.45679E-03
    8065.282    330.910   9.550  9.11790E-01  9.23629E-01 -1.28129E-02
    8068.930    334.558   9.600  9.05591E-01  9.22698E-01 -1.85303E-02
    8072.598    338.225   9.650  9.01493E-01  9.21766E-01 -2.19800E-02
    8076.284    341.911   9.700  8.98756E-01  9.20834E-01 -2.39598E-02
    8079.989    345.616   9.750  8.96479E-01  9.19902E-01 -2.54432E-02
    8083.713    349.340   9.800  8.93873E-01  9.18971E-01 -2.72878E-02
    8087.456    353.084   9.850  8.90493E-01  9.18039E-01 -2.99776E-02
    8091.219    356.846   9.900  8.86386E-01  9.17107E-01 -3.34642E-02
    8095.000    360.627   9.950  8.82105E-01  9.16175E-01 -3.71476E-02
    8098.801    364.428  10.000  8.78589E-01  9.15243E-01 -4.00026E-02
    8102.620    368.247  10.050  8.76726E-01  9.14142E-01 -4.08808E-02
    8106.459    372.086  10.100  8.77720E-01  9.13041E-01 -3.86349E-02
    8110.316    375.944  10.150  8.82246E-01  9.11939E-01 -3.25176E-02
    8114.193    379.820  10.200  8.90431E-01  9.10838E-01 -2.23736E-02
    8118.089    383.716  10.250  9.01779E-01  9.09737E-01 -8.73423E-03
    8122.003    387.631  10.300  9.15215E-01  9.08635E-01  7.22989E-03
    8125.937    391.564  10.350  9.29245E-01  9.07534E-01  2.38848E-02
    8129.890    395.517  10.400  9.42202E-01  9.06433E-01  3.93965E-02
    8133.862    399.489  10.450  9.52511E-01  9.05331E-01  5.20244E-02
    8137.853    403.480  10.500  9.58927E-01  9.04230E-01  6.03830E-02
    8141.863    407.490  10.550  9.60697E-01  9.03129E-01  6.36266E-02
    8145.892    411.519  10.600  9.57633E-01  9.02027E-01  6.15288E-02
    8149.940    415.567  10.650  9.50085E-01  9.00926E-01  5.44581E-02
    8154.007    419.635  10.700  9.38838E-01  8.99825E-01  4.32693E-02
    8158.094    423.721  10.750  9.24972E-01  8.98723E-01  2.91460E-02
    8162.199    427.826  10.800  9.09705E-01  8.97622E-01  1.34319E-02
    8166.323    431.950  10.850  8.94256E-01  8.96521E-01 -2.52033E-03
    8170.466    436.094  10.900  8.79745E-01  8.95419E-01 -1.74652E-02
    8174.629    440.256  10.950  8.67119E-01  8.94318E-01 -3.03420E-02
    8178.810    444.438  11.000  8.57114E-01  8.93217E-01 -4.03228E-02
    8183.011    448.638  11.050  8.50027E-01  8.92008E-01 -4.69486E-02
    8187.230    452.858  11.100  8.46324E-01  8.90799E-01 -4.98027E-02
    8191.469    457.096  11.150  8.45963E-01  8.89590E-01 -4.89171E-02
    8195.727    461.354  11.200  8.48626E-01  8.88381E-01 -4.46350E-02
    8200.003    465.631  11.250  8.53744E-01  8.87172E-01 -3.75803E-02
    8204.299    469.926  11.300  8.60559E-01  8.85964E-01 -2.85975E-02
    8208.614    474.241  11.350  8.68202E-01  8.84755E-01 -1.86575E-02
    8212.948    478.575  11.400  8.75806E-01  8.83546E-01 -8.73510E-03
    8217.301    482.928  11.450  8.82622E-01  8.82337E-01  3.22515E-04
    8221.673    487.300  11.500  8.88122E-01  8.81128E-01  7.91505E-03
    8226.064    491.691  11.550  8.92068E-01  8.79919E-01  1.37666E-02
    8230.474    496.101  11.600  8.94522E-01  8.78710E-01  1.79407E-02
    8234.903    500.530  11.650  8.95793E-01  8.77501E-01  2.07823E-02
    8239.351    504.978  11.700  8.96330E-01  8.76293E-01  2.27955E-02
    8243.818    509.445  11.750  8.96573E-01  8.75084E-01  2.44802E-02
    8248.304    513.932  11.800  8.96814E-01  8.73875E-01  2.61670E-02
    8252.810    518.437  11.850  8.97085E-01  8.72666E-01  2.78922E-02
    8257.334    522.961  11.900  8.97117E-01  8.71457E-01  2.93484E-02
    8261.878    527.505  11.950  8.96383E-01  8.70248E-01  2.99313E-02
    8266.440    532.067  12.000  8.94221E-01  8.69039E-01  2.88785E-02
    8271.021    536.649  12.050  8.89979E-01  8.67798E-01  2.54748E-02
    8275.622    541.249  12.100  8.83270E-01  8.66556E-01  1.92230E-02
    8280.242    545.869  12.150  8.74104E-01  8.65314E-01  1.01239E-02
    8284.880    550.507  12.200  8.62970E-01  8.64072E-01 -1.27110E-03
    8289.538    555.165  12.250  8.50819E-01  8.62830E-01 -1.38742E-02
    8294.215    559.842  12.300  8.38940E-01  8.61589E-01 -2.61994E-02
    8298.911    564.538  12.350  8.28751E-01  8.60347E-01 -3.66017E-02
    8303.625    569.253  12.400  8.21546E-01  8.59105E-01 -4.35732E-02
    8308.359    573.986  12.450  8.18241E-01  8.57863E-01 -4.60325E-02
    8313.112    578.739  12.500  8.19193E-01  8.56622E-01 -4.35473E-02
    8317.884    583.511  12.550  8.24109E-01  8.55380E-01 -3.64357E-02
    8322.675    588.303  12.600  8.32093E-01  8.54138E-01 -2.57240E-02
    8327.485    593.113  12.650  8.41801E-01  8.52896E-01 -1.29658E-02
    8332.315    597.942  12.700  8.51691E-01  8.51654E-01  4.24608E-05
    8337.163    602.790  12.750  8.60300E-01  8.50413E-01  1.15875E-02
